0.06990105746997087,-0.018780293319260274,0.19850655776340456,0.0
0.06989649771410199,-0.018639745550125306,0.19855832440356305,0.0
0.06991741894691215,-0.018762054295784744,0.19863879068360216,0.0
0.06990856765610785,-0.01884949432009391,0.19863423092773327,0.0
0.06988737820236422,-0.01882615909888257,0.19854196292662177,0.0
0.06988818286516461,-0.018656375248000054,0.19857844097357283,0.0
0.06989649771410199,-0.01871136053936011,0.19859721643891529,0.0
0.06989032863263232,-0.01888007150650877,0.1985180912635435,0.0
0.06990186213277126,-0.01884144769209,0.19855483753142802,0.0
0.06987933157436031,-0.018673809608675193,0.1985669074734339,0.0
0.06990642188864014,-0.01873550042337184,0.19856073839196423,0.0
0.06991071342357556,-0.018882485494909944,0.19855376464769417,0.0
0.06988174556276149,-0.0188473485526262,0.1985610066128977,0.0
0.06985760567874975,-0.018671127399340556,0.19854786378715797,0.0
0.06990508078397283,-0.01866924985280631,0.198521846356612,0.0
0.06989462016756774,-0.018864514692367877,0.19850870353087227,0.0
0.06989113329543271,-0.01880470142420547,0.19852452856594663,0.0
0.0698712849463564,-0.018681319794812176,0.19854786378715797,0.0
0.06990534900490629,-0.01862901671278676,0.19854142648475484,0.0
0.06990508078397283,-0.01881060228474167,0.19854223114755523,0.0
0.0698830866674288,-0.018858345610898213,0.1985231874612793,0.0
0.06986350653928595,-0.01872906312096871,0.19851111751927344,0.0
0.06987745402782607,-0.018612118793978547,0.19849314671673138,0.0
0.06989140151636618,-0.018760444970183962,0.19849877935633412,0.0
0.06985036371354623,-0.018924864402397205,0.19849421960046523,0.0
0.06985599635314897,-0.01876473650511938,0.19852667433341434,0.0
0.06988925574889847,-0.01856947166555782,0.19849046450739674,0.0
0.06990239857463819,-0.018700899922955025,0.19848885518179596,0.0
0.06990669010957361,-0.018843861680491174,0.19850468021687032,0.0
0.06989247440010003,-0.01882750020354989,0.19843521099510322,0.0
0.06991420029571059,-0.018845471006091956,0.198444330506841,0.0
0.06987396715569104,-0.018828841308217208,0.19842394571589775,0.0
0.06985706923688283,-0.01871136053936011,0.1984279690298997,0.0
0.0699163460631783,-0.018655034143332735,0.1984869776352617,0.0
0.06992787956331724,-0.01884788499449313,0.19848214965845937,0.0
0.06990937231890824,-0.018854322296896257,0.1984582779953811,0.0
0.0699310982145188,-0.018765809388853236,0.19849851113540065,0.0
0.06991473673757752,-0.018860491378365922,0.19846551996058462,0.0
0.06992117403998065,-0.018757226318982398,0.19843869786723825,0.0
0.06991259097010981,-0.01856652123528972,0.1984199224018958,0.0
0.06990320323743858,-0.01869607194615268,0.19840382914588797,0.0
0.06989622949316852,-0.01882615909888257,0.19842662792523239,0.0
0.06991151808637595,-0.01866334899227011,0.19833623747065512,0.0
0.06988174556276149,-0.01885003076196084,0.19833435992412088,0.0
0.06991795538877908,-0.01888731347171229,0.19829680899343596,0.0
0.06992600201678299,-0.018619360759182066,0.19837673883160814,0.0
0.06991902827251294,-0.01861372811957933,0.19834482054052596,0.0
0.06991393207477713,-0.018782707307661448,0.19838129858747702,0.0
0.06989059685356579,-0.018834473947819945,0.1983365056915886,0.0
0.0698830866674288,-0.018653693038665417,0.198322289982115,0.0
0.06990293501650512,-0.01868668421348145,0.1983163891215788,0.0
0.06990910409797478,-0.018841715913023464,0.19828929880729898,0.0
0.06985224126008048,-0.018861296041166313,0.19824316480674323,0.0
0.06984419463207657,-0.018653693038665417,0.19829117635383323,0.0
0.06985304592288087,-0.018888386355446145,0.19829332212130094,0.0
0.0698388302134073,-0.018731745330303348,0.19825255253941446,0.0
0.06983990309714115,-0.01860863192184352,0.19827481487689194,0.0
0.06986109255088478,-0.01872155293483173,0.1982868848188978,0.0
0.06985116837634663,-0.018750520795645806,0.19825577119061602,0.0
0.06986109255088478,-0.018620970084782848,0.19825416186501524,0.0
0.06986592052768713,-0.018628212049986367,0.19824128726020898,0.0
0.06992573379584953,-0.018585564921565642,0.19828742126076473,0.0
0.06987745402782607,-0.018773051354056755,0.19827535131875887,0.0
0.06989622949316852,-0.01881355271500977,0.19824504235327747,0.0
0.06990964053984171,-0.01864162309665955,0.19823189952753775,0.0
0.0698838913302292,-0.018587442468099888,0.19820695498072563,0.0
0.06988818286516461,-0.018698754155487315,0.1982713280047569,0.0
0.06990213035370473,-0.018516900362598936,0.19824504235327747,0.0
0.06988442777209612,-0.018663080771336646,0.1982257304460681,0.0
0.06986028788808439,-0.018837960819954973,0.19816779472443993,0.0
0.0698771858068926,-0.018734427539637985,0.19819408037591937,0.0
0.06985975144621746,-0.01854667288621341,0.198215269829663,0.0
0.06988415955116266,-0.018789949272864967,0.19813909508455932,0.0
0.06984258530647579,-0.01864591463159497,0.19807606316519535,0.0
0.0698476815042116,-0.018620970084782848,0.198137753979892,0.0
0.06988067267902763,-0.018738182632706477,0.19817262270124228,0.0
0.06982005474806484,-0.01874354705137575,0.1981149552005476,0.0
0.0698683345160883,-0.018622042968516703,0.19813721753802507,0.0
0.0698978388187693,-0.018770637365655582,0.19822841265540272,0.0
0.06989515660943467,-0.01864591463159497,0.19821339228312876,0.0
0.06989059685356579,-0.01850912195552849,0.19821392872499569,0.0
0.06989676593503545,-0.01862901671278676,0.1982182202599311,0.0
0.06987450359755797,-0.018814893819677096,0.19817074515470803,0.0
0.06987638114409221,-0.018689902864683014,0.19823216774847122,0.0
0.06986404298115288,-0.01886317358770056,0.19825308898128138,0.0
0.06985787389968322,-0.01880255565673776,0.19824370124861015,0.0
0.06984070775994154,-0.01862392051505095,0.19820802786445949,0.0
0.0698565327950159,-0.018651279050264244,0.19826730469075496,0.0
0.06988362310929573,-0.018756153435248543,0.19826194027208568,0.0
0.06986189721368517,-0.018790753935665358,0.19821741559713071,0.0
0.06989837526063623,-0.018743010609508823,0.19818335153858083,0.0
0.06988710998143076,-0.018791826819399213,0.19824075081834205,0.0
0.06988871930703154,-0.01871296986496089,0.19820078589925597,0.0
0.0698771858068926,-0.018600317072906145,0.19821071007379412,0.0
0.06989140151636618,-0.01873630508617223,0.19825684407434987,0.0
0.06989810703970277,-0.018809529401007816,0.198263281376753,0.0
0.0698919379582331,-0.018674077829608657,0.19824718812074518,0.0
0.0698712849463564,-0.018878193959974525,0.19819944479458865,0.0
0.06985304592288087,-0.018874707087839497,0.1981790600036454,0.0
0.06986699341142098,-0.01866200788760279,0.19820963719006027,0.0
0.0698860370976969,-0.018632503584921786,0.19817476846871,0.0
0.06986457942301981,-0.018836083273420727,0.1981525061312325,0.0
0.06988576887676344,-0.0186161421079805,0.19805996990918753,0.0
0.06984955905074584,-0.018814625598743633,0.19805326438585094,0.0
0.06982971070166953,-0.01886692868076905,0.198041730885712,0.0
0.0698830866674288,-0.018792631482199604,0.19809081531653586,0.0
0.06988657353956383,-0.018585564921565642,0.19809215642120317,0.0
0.06988255022556188,-0.018740864842041113,0.19805460549051826,0.0
0.06985385058568126,-0.01867059095747363,0.1979929146758216,0.0
0.06986350653928595,-0.018668176969072456,0.19797333454767876,0.0
0.06984634039954428,-0.018895091878782737,0.19799693798982357,0.0
0.06984419463207657,-0.018898578750917765,0.19796180104753983,0.0
0.06985599635314897,-0.01875883564458318,0.19794383024499776,0.0
0.06989542483036813,-0.018785389516996084,0.19794329380313083,0.0
0.06988335488836227,-0.018841984133956928,0.19792827343085687,0.0
0.06988925574889847,-0.018694194399618433,0.197868191941761,0.0
0.06988335488836227,-0.01885459051782972,0.19784271095308195,0.0
0.0698439264111431,-0.01891708599532676,0.1978341278832111,0.0
0.0698801362371607,-0.01890045629745201,0.19782286260400564,0.0
0.06990213035370473,-0.018670322736540165,0.19792183612845374,0.0
0.06991420029571059,-0.01887926684370838,0.19785290334855357,0.0
0.06990025280717048,-0.01875373944684737,0.1978282270226749,0.0
0.06989676593503545,-0.0187660776097867,0.19782205794120525,0.0
0.06988576887676344,-0.018932642809467652,0.1977898714291896,0.0
0.06984499929487696,-0.018959733123747484,0.19780301425492933,0.0
0.06987396715569104,-0.018819990017412906,0.19780784223173167,0.0
0.06988469599302959,-0.018974217054154523,0.1977493700682366,0.0
0.06986913917888869,-0.018822672226747543,0.19774159166116614,0.0
0.06987101672542294,-0.01868882998094916,0.19769706698621117,0.0
0.06985411880661473,-0.018903674948653575,0.19765978427645972,0.0
0.0698683345160883,-0.018898042309050837,0.19770082207927966,0.0
0.06986377476021942,-0.018809529401007816,0.19764315457858497,0.0
0.06984312174834272,-0.018962951774949048,0.19751762718172397,0.0
0.06982944248073607,-0.018903674948653575,0.19745647280889425,0.0
0.06984017131807461,-0.018754275888714297,0.19743045537834827,0.0
0.06985572813221551,-0.01869902237642078,0.1974508401692915,0.0
0.06983936665527422,-0.01891198979759095,0.1974036332850019,0.0
0.0698565327950159,-0.018900724518385474,0.19734730688897453,0.0
0.06987208960915679,-0.018850567203827766,0.19727488723693934,0.0
0.0698417806436754,-0.018955441588812065,0.19723787274812135,0.0
0.06985519169034858,-0.018832864622219163,0.19720166292210375,0.0
0.06984848616701199,-0.018702509248555807,0.19716464843328577,0.0
0.06984043953900808,-0.018902065623052793,0.1971777912590255,0.0
0.06980932591072629,-0.019044222717788543,0.19713809456087286,0.0
0.06981495855032903,-0.01876822337725441,0.1971311208166028,0.0
0.06978357670111378,-0.018913330902258267,0.1970935698859179,0.0
0.06978304025924685,-0.0189012609602524,0.19705011809469677,0.0
0.0698329293528711,-0.018742474167641895,0.19712280596766543,0.0
0.06983051536446992,-0.01873335465590413,0.1971112724675265,0.0
0.06982568738766758,-0.018882485494909944,0.1970388528154913,0.0
0.06984285352740925,-0.018720748272031337,0.1969650920587888,0.0
0.06983775732967344,-0.01891279446039134,0.19693049155837197,0.0
0.06980664370139165,-0.018950345391076255,0.1968838211159493,0.0
0.06982971070166953,-0.018861296041166313,0.1968800660228808,0.0
0.06988737820236422,-0.018664690096937428,0.19688838087181817,0.0
0.06987611292315875,-0.018773856016857146,0.19685297570860097,0.0
0.06983909843434076,-0.018682124457612567,0.1967759963006969,0.0
0.06984365819020964,-0.018732818214037203,0.19678001961469885,0.0
0.06983561156220573,-0.01895570980974553,0.19678136071936617,0.0
0.06984124420180847,-0.018905284274254357,0.19679235777763818,0.0
0.06981898186433098,-0.018775197121524465,0.19678055605656578,0.0
0.06984231708554232,-0.018721821155765192,0.19682561717338767,0.0
0.06986779807422137,-0.018821599343013688,0.19673066696294153,0.0
0.06987262605102372,-0.01870197280668888,0.19669284781132315,0.0
0.06986726163235445,-0.01891145335572402,0.19671725591626835,0.0
0.06985250948101394,-0.01895436870507821,0.19672691186987304,0.0
0.06986189721368517,-0.018821331122080225,0.19667943676464997,0.0
0.06985385058568126,-0.018686415992547986,0.19666924436917835,0.0
0.06986297009741903,-0.01897475349602145,0.1963658864934309,0.0
0.06985599635314897,-0.018922718634929496,0.19640826540091816,0.0
0.06980932591072629,-0.018781902644861057,0.19640960650558548,0.0
0.06984580395767735,-0.018825622657015643,0.19639673190077922,0.0
0.06985626457408244,-0.018927814832665306,0.19639887766824693,0.0
0.06985116837634663,-0.01895356404227782,0.19635086612115693,0.0
0.06981898186433098,-0.018961342449348266,0.19624894216644073,0.0
0.06985304592288087,-0.018996747612565472,0.19625162437577537,0.0
0.06984553573674389,-0.018868001564502905,0.1962049539333527,0.0
0.06984419463207657,-0.018742205946708432,0.19621621921255816,0.0
0.06984526751581042,-0.018908771146389385,0.1961848373633429,0.0
0.06984043953900808,-0.01898628699616039,0.19617840006093978,0.0
0.06986109255088478,-0.01887202487850486,0.19613950802558755,0.0
0.0698447310739435,-0.019004257798702455,0.19612395121144666,0.0
0.0698417806436754,-0.01888865457637961,0.196165793677067,0.0
0.06986270187648556,-0.018710287655626254,0.19616901232826855,0.0
0.06983641622500612,-0.018792899703133067,0.1961716945376032,0.0
0.06983775732967344,-0.018996211170698545,0.19620656325895347,0.0
0.06983427045753841,-0.01880550608700586,0.19618725135174409,0.0
0.06981603143406288,-0.019005867124303237,0.19615560128159537,0.0
0.06984124420180847,-0.019014450194174075,0.19611214949037425,0.0
0.06983641622500612,-0.01889670120438352,0.19608613205982828,0.0
0.06983909843434076,-0.018775197121524465,0.19611027194384,0.0
0.06984794972514506,-0.01891494022785905,0.1961140270369085,0.0
0.06981361744566171,-0.018837424378088045,0.19587531040612582,0.0
0.06983158824820378,-0.01875373944684737,0.19593914698829018,0.0
0.06982568738766758,-0.018966975088951003,0.1959353918952217,0.0
0.06981469032939557,-0.019062729962197537,0.1959042782669399,0.0
0.06980288860832316,-0.018814089156876705,0.19594826650002795,0.0
0.06983695266687305,-0.018693389736818042,0.19593887876735672,0.0
0.0698417806436754,-0.018848957878226984,0.19598206233764437,0.0
0.06982193229459908,-0.018931301704800334,0.19592627238348392,0.0
0.0697967195268535,-0.018857004506230894,0.1958975727436033,0.0
0.0698468768414112,-0.01863920910825838,0.19585787604545069,0.0
0.06985331414381434,-0.018869610890103687,0.19597857546550934,0.0
0.06982568738766758,-0.018940152995604635,0.19597321104684007,0.0
0.06982783315513529,-0.018846275668892347,0.19594987582562873,0.0
0.06984285352740925,-0.018690707527483405,0.19596516441883616,0.0
0.06985921500435054,-0.01876768693538748,0.1959766979189751,0.0
0.06984580395767735,-0.018914403785992122,0.19597642969804163,0.0
0.06985090015541316,-0.01886263714583363,0.19596623730257,0.0
0.0698358797831392,-0.01871940716736402,0.19593029569748588,0.0
0.06983641622500612,-0.018762858958585135,0.19596650552350348,0.0
0.06983105180633685,-0.018903138506786647,0.19597482037244085,0.0
0.0698211276317987,-0.018889191018246536,0.19596596908163655,0.0
0.0698262238295345,-0.018705996120690835,0.19595121693029605,0.0
0.06984285352740925,-0.018704655016023516,0.1959455842906933,0.0
0.06984419463207657,-0.018898042309050837,0.19602336836139778,0.0
0.06984151242274193,-0.018881949053043016,0.1959965462680514,0.0
0.06983775732967344,-0.018726380911634075,0.1959648961979027,0.0
0.06981603143406288,-0.0186523519339981,0.19597642969804163,0.0
0.06982354162019987,-0.018862905366767095,0.19596462797696923,0.0
0.069840975980875,-0.018928619495465697,0.19596060466296727,0.0
0.06983909843434076,-0.01882401333141486,0.195955240244298,0.0
0.06983668444593959,-0.0187121652021605,0.19593324612775398,0.0
0.06982515094580065,-0.018887849913579217,0.1959286863718851,0.0
0.06980342505019009,-0.01898870098456156,0.19588416169693013,0.0
0.06986055610901785,-0.01887926684370838,0.19582488487063465,0.0
0.06983427045753841,-0.018732013551236812,0.19583024928930393,0.0
0.06984902260887892,-0.01881945357554598,0.19588335703412973,0.0
0.06980422971299048,-0.018938811890937317,0.19584339211504365,0.0
0.0698380255506069,-0.018883826599577262,0.19580932805649376,0.0
0.06984929082981238,-0.01877412423779061,0.19587584684799275,0.0
0.06983909843434076,-0.018849762541027375,0.19588845323186554,0.0
0.06982059118993177,-0.018975021716954914,0.1958600218129184,0.0
0.0698240780620668,-0.018927010169864915,0.19586163113851918,0.0
0.06981469032939557,-0.018716724958029382,0.1958895261155994,0.0
0.0697811627127126,-0.018787535284463794,0.19588925789466594,0.0
0.06982568738766758,-0.01893693434440307,0.195848220091846,0.0
0.06985492346941512,-0.01892513262333067,0.1958643133478538,0.0
0.06983614800407266,-0.018781097982060665,0.19585653494078337,0.0
0.0698388302134073,-0.018723698702299438,0.19585385273144873,0.0
0.06984848616701199,-0.018930765262933406,0.19590481470880683,0.0
0.0698350751203388,-0.018950345391076255,0.19588174770852895,0.0
0.06984955905074584,-0.018765809388853236,0.19588845323186554,0.0
0.06983614800407266,-0.018742474167641895,0.195888721452799,0.0
0.06982193229459908,-0.018943103425872736,0.19583749125450745,0.0
0.06981978652713138,-0.019016864182575248,0.1958600218129184,0.0
0.06980530259672434,-0.018871756657571397,0.19589998673200448,0.0
0.06981951830619791,-0.01872316226043251,0.19588791678999862,0.0
0.06979618308498657,-0.018941494100271954,0.19594826650002795,0.0
0.06978920934071652,-0.018983068344958824,0.1959611411048342,0.0
0.06984312174834272,-0.018824281552348325,0.19594504784882638,0.0
0.06981200812006093,-0.01876098141205089,0.19591768931361309,0.0
0.06982380984113333,-0.0188924096694481,0.19595845889549957,0.0
0.06981629965499635,-0.01897850858908994,0.19591259311587728,0.0
0.06980744836419205,-0.01895731913534631,0.19586940954558962,0.0
0.06980530259672434,-0.018766345830720163,0.19590079139480487,0.0
0.06982488272486718,-0.018875779971573352,0.1959316368021532,0.0
0.06983427045753841,-0.01898065435655765,0.19591339777867767,0.0
0.06982354162019987,-0.018950345391076255,0.19589381765053482,0.0
0.0698203229689983,-0.01876983270285519,0.19595980000016688,0.0
0.0698291742598026,-0.01879665479620156,0.19595926355829996,0.0
0.06982273695739948,-0.018972339507620277,0.19594477962789292,0.0
0.06979859707338774,-0.018939348332804244,0.19593405079055437,0.0
0.0697811627127126,-0.01880389676140508,0.19587343285959158,0.0
0.06978733179418227,-0.018818648912745588,0.19589945029013756,0.0
0.06977660295684372,-0.01896965729828564,0.19591956686014733,0.0
0.06980422971299048,-0.019009353996438265,0.19597482037244085,0.0
0.06983078358540339,-0.018880339727442234,0.19594504784882638,0.0
0.0698055708176578,-0.018782439086727984,0.19594397496509253,0.0
0.06979752418965389,-0.018995674728831617,0.19595631312803186,0.0
0.06978304025924685,-0.019036176089784633,0.19594585251162677,0.0
0.06979618308498657,-0.018910380471990167,0.19591876219734694,0.0
0.06981629965499635,-0.018764200063252454,0.195955240244298,0.0
0.06982166407366562,-0.018932911030401116,0.19594907116282834,0.0
0.06980932591072629,-0.019035639647917706,0.19597535681430778,0.0
0.06981603143406288,-0.018881949053043016,0.19595389913963068,0.0
0.06975916859616858,-0.018787803505397258,0.19589596341800253,0.0
0.06982220051553255,-0.018906625378921675,0.19594317030229214,0.0
0.06982461450393372,-0.018954905146945138,0.19595121693029605,0.0
0.06981227634099439,-0.018873634204105642,0.19593110036028627,0.0
0.06982220051553255,-0.018695267283352288,0.1959021324994722,0.0
0.06984714506234467,-0.018811138726608598,0.1959825987795113,0.0
0.06983373401567149,-0.018989773868295416,0.1959544355814976,0.0
0.06980771658512551,-0.01896375643774944,0.1959005231738714,0.0
0.0698240780620668,-0.01876098141205089,0.19591152023214342,0.0
0.06982676027140143,-0.018817576029011733,0.19592895459281856,0.0
0.06981790898059713,-0.01901337731044022,0.1959093744646757,0.0
0.06981066701539361,-0.019002916694035137,0.19591768931361309,0.0
0.06980959413165976,-0.01881945357554598,0.1959034736041395,0.0
0.06979886529432121,-0.018835010389686872,0.19592707704628431,0.0
0.06982461450393372,-0.018956782693479383,0.195936732999889,0.0
0.06980932591072629,-0.018976362821622232,0.19587128709212387,0.0
0.0698173725387302,-0.01879880056366927,0.19589354942960135,0.0
0.06983078358540339,-0.01875588521431508,0.19593110036028627,0.0
0.06980986235259322,-0.01898119079842458,0.19590696047627454,0.0
0.0697967195268535,-0.018971534844819886,0.1958844299178636,0.0
0.06976775166603942,-0.018837960819954973,0.19582837174276968,0.0
0.06982139585273216,-0.018739523737373795,0.19583829591730784,0.0
0.06983909843434076,-0.018962951774949048,0.19591500710427845,0.0
0.06981066701539361,-0.018943639867739663,0.19592385839508275,0.0
0.06979752418965389,-0.018865855797035196,0.1958836252550632,0.0
0.06982890603886914,-0.018749179690978487,0.1958651180106542,0.0
0.06980476615485741,-0.018950345391076255,0.1958613629175857,0.0
0.0697870635732488,-0.01901257264763983,0.19586699555718845,0.0
0.06976319191017054,-0.01893398391413497,0.19584258745224326,0.0
0.06978008982897875,-0.018773587795923682,0.1958246166497012,0.0
0.06976962921257367,-0.018846007447958883,0.19582408020783426,0.0
0.06974146601455998,-0.01903590786885117,0.19578196952128046,0.0
0.06977579829404333,-0.018962951774949048,0.19583883235917476,0.0
0.06978330848018031,-0.018835010389686872,0.19584097812664247,0.0
0.06976480123577132,-0.01890260206491972,0.19585653494078337,0.0
0.0697672152241725,-0.01907104481113491,0.19582783530090275,0.0
0.06975970503803551,-0.019020887496577203,0.1957985992191552,0.0
0.06973958846802573,-0.018881949053043016,0.19578331062594778,0.0
0.06975970503803551,-0.018800678110203514,0.19581817934729806,0.0
0.06974843975883004,-0.019060584194729828,0.19581844756823152,0.0
0.06977418896844255,-0.018993260740430444,0.19590830158094186,0.0
0.06976292368923707,-0.01887497530877296,0.19585760782451722,0.0
0.06975541350310009,-0.018833937505953018,0.19588121126666203,0.0
0.06976453301483786,-0.018990578531095807,0.19591473888334499,0.0
0.06977794406151104,-0.019030543450181896,0.1958836252550632,0.0
0.0697841131429807,-0.018916013111592904,0.19586243580131957,0.0
0.06977257964284177,-0.018822135784880616,0.19585868070825108,0.0
0.06977338430564216,-0.018999698042833572,0.19586377690598689,0.0
0.0697693609916402,-0.019066753276199493,0.19586243580131957,0.0
0.06975916859616858,-0.01896080600748134,0.19584285567317672,0.0
0.06974227067736037,-0.018795045470600777,0.1958090598355603,0.0
0.06973181006095529,-0.019017937066309103,0.19584982941744677,0.0
0.06976882454977328,-0.019057365543528264,0.19585063408024717,0.0
0.0697811627127126,-0.01895141827481011,0.19585143874304756,0.0
0.06976909277070674,-0.018822672226747543,0.19584500144064443,0.0
0.06978599068951495,-0.018925400844264133,0.1958436603359771,0.0
0.06978062627084568,-0.019034030322316924,0.19580369541689102,0.0
0.06974629399136233,-0.019028397682714186,0.1957943076842198,0.0
0.06974817153789657,-0.01881891713367905,0.19583588192890666,0.0
0.06979269621285154,-0.018822135784880616,0.1958141560332961,0.0
0.06977955338711182,-0.019025447252446086,0.1958074505099595,0.0
0.06979484198031925,-0.01892808305359877,0.1958045000796914,0.0
0.06978464958484763,-0.018815430261544024,0.1957433457068617,0.0
0.06979457375938579,-0.018809529401007816,0.19576212117220415,0.0
0.069792964433785,-0.01897904503095687,0.1957698995792746,0.0
0.06980637548045819,-0.018992724298563517,0.19577124068394192,0.0
0.06979832885245428,-0.018819185354612515,0.1957985992191552,0.0
0.0697878682360492,-0.018733891097771058,0.19577687332354465,0.0
0.06978330848018031,-0.018967243309884467,0.1958128149286288,0.0
0.06976533767763825,-0.01900452601963592,0.1958061094052922,0.0
0.06975782749150126,-0.018883290157710335,0.19577016780020806,0.0
0.06976238724737015,-0.01879880056366927,0.19580664584715912,0.0
0.06976238724737015,-0.01893693434440307,0.19585787604545069,0.0
0.06975863215430166,-0.018999966263767036,0.19576346227687147,0.0
0.06974173423549344,-0.018929424158266088,0.1957572931954018,0.0
0.06970632907227624,-0.01875239834218005,0.1957913572539517,0.0
0.06972322699108445,-0.01889375077411542,0.19575782963726873,0.0
0.06975836393336819,-0.018998625159099718,0.19568594642710047,0.0
0.06973154184002182,-0.018937739007203462,0.19570767232271102,0.0
0.06970257397920775,-0.018769564481921727,0.19574790546273058,0.0
0.06976211902643668,-0.018849226099160447,0.1957564885326014,0.0
0.06974066135175959,-0.0190120362057729,0.19573905417192627,0.0
0.06974897620069696,-0.01893827544907039,0.19574146816032745,0.0
0.06974388000296115,-0.018739523737373795,0.19571732827631572,0.0
0.06974897620069696,-0.01884278879675732,0.19578331062594778,0.0
0.06975031730536428,-0.019018741729109494,0.19579752633542136,0.0
0.06977070209630752,-0.01895651447254592,0.1957766051026112,0.0
0.06975729104963434,-0.01884144769209,0.1957543427651337,0.0
0.06975273129376545,-0.018777611109925638,0.19575541564886756,0.0
0.06975139018909814,-0.019007744670837483,0.19572376557871884,0.0
0.0697760665149768,-0.018958123798146702,0.19574200460219437,0.0
0.06975970503803551,-0.018846275668892347,0.19569613882257209,0.0
0.06977740761964411,-0.018807115412606643,0.19578813860275013,0.0
0.06975514528216663,-0.01901418197324061,0.1958200568938323,0.0
0.06977553007310987,-0.01904770958992357,0.19580503652155834,0.0
0.0697849178057811,-0.018927546611731842,0.19578867504461706,0.0
0.06974468466576154,-0.018836083273420727,0.19578813860275013,0.0
0.06975112196816467,-0.018975289937888377,0.19581361959142918,0.0
0.06979108688725076,-0.019049587136457817,0.19579403946328633,0.0
0.06978035804991221,-0.01892164575119564,0.19577982375381275,0.0
0.06976024147990244,-0.018782439086727984,0.19576131650940376,0.0
0.06977660295684372,-0.01890179740211933,0.19584875653371292,0.0
0.06975863215430166,-0.019031884554849214,0.1957846517306151,0.0
0.06977177498004138,-0.018965633984283685,0.1958326632777051,0.0
0.06978062627084568,-0.01876178607485128,0.19587450574332543,0.0
0.06975675460776741,-0.018902065623052793,0.19587048242932348,0.0
0.06973824736335842,-0.01907533634607033,0.19584768364997907,0.0
0.06976855632883981,-0.018996479391632008,0.19581844756823152,0.0
0.0698085212479259,-0.018802019214870833,0.19575112411393214,0.0
0.06975621816590048,-0.018907430041722066,0.19576721736993996,0.0
0.06975782749150126,-0.01907104481113491,0.19577043602114153,0.0
0.06976909277070674,-0.019056829101661336,0.19580128142848985,0.0
0.06976748344510596,-0.018910916913857094,0.19575997540473644,0.0
0.06976185080550322,-0.01890555249518782,0.19576265761407108,0.0
0.06976185080550322,-0.019067826159933347,0.19576238939313761,0.0
0.06976238724737015,-0.019069703706467593,0.19571625539258186,0.0
0.06976775166603942,-0.01891279446039134,0.19571732827631572,0.0
0.06977365252657562,-0.018787535284463794,0.1957240337996523,0.0
0.06977392074750909,-0.018990310310162344,0.19571759649724918,0.0
0.069763460131104,-0.019050123578324744,0.1957580978582022,0.0
0.06975890037523512,-0.018939348332804244,0.19573127576485583,0.0
0.06975782749150126,-0.018820794680213297,0.1957277888927208,0.0
0.06975273129376545,-0.01898119079842458,0.19569613882257209,0.0
0.06974709865416272,-0.01906085241566329,0.19572430202058577,0.0
0.06975568172403356,-0.01891869532092754,0.19571169563671298,0.0
0.06974763509602964,-0.018766345830720163,0.19568621464803393,0.0
0.06974066135175959,-0.018909307588256312,0.1957285935555212,0.0
0.06975836393336819,-0.018982531903091897,0.19576533982340572,0.0
0.0697183990142821,-0.019036176089784633,0.19567950912469734,0.0
0.06974495288669501,-0.01886102782023285,0.1957720453467423,0.0
0.06975809571243473,-0.018887045250778826,0.195744686811529,0.0
0.06976506945670478,-0.019062998183131,0.1956599289965545,0.0
0.06976855632883981,-0.019002112031234746,0.19560172505399287,0.0
0.06976801988697288,-0.018832864622219163,0.1956510777057502,0.0
0.06977365252657562,-0.018841984133956928,0.19565563746161907,0.0
0.06975970503803551,-0.019050660020191672,0.19565751500815332,0.0
0.0697546088402997,-0.019016595961641784,0.195656173903486,0.0
0.06976104614270283,-0.0188355468315538,0.19565134592668365,0.0
0.06976426479390439,-0.018776806447125247,0.1956789726828304,0.0
0.06973771092149149,-0.019042076950320834,0.1956982845900398,0.0
0.06975541350310009,-0.01904314983405469,0.19571169563671298,0.0
0.06974763509602964,-0.018868538006369832,0.19569318839230398,0.0
0.06974039313082613,-0.01878860816819765,0.1956827277758989,0.0
0.06973797914242495,-0.019017400624442175,0.19570150324124136,0.0
0.0697133028165463,-0.01902947056644804,0.19568755575270125,0.0
0.06969828244427233,-0.018911185134790558,0.19567870446189695,0.0
0.06972108122361674,-0.01881596670341095,0.195637666659077,0.0
0.06974656221229579,-0.018967779751751394,0.19567038961295957,0.0
0.0697310053981549,-0.01907614100887072,0.19571625539258186,0.0
0.06971410747934668,-0.01897555815882184,0.19571920582284996,0.0
0.06968567606039953,-0.01879450902873385,0.19575997540473644,0.0
0.06968996759533495,-0.018905016053320893,0.19576802203274035,0.0
0.06972859140975372,-0.019028934124581114,0.19576373049780493,0.0
0.0697302007353545,-0.018935593239735753,0.1957808966375466,0.0
0.06971222993281244,-0.018785925958863012,0.19578357884688125,0.0
0.06973502871215685,-0.018846812110759274,0.1957867974980828,0.0
0.06974066135175959,-0.01898923742642849,0.1957779462072785,0.0
0.06971813079334864,-0.018954636926011674,0.19577124068394192,0.0
0.06970445152574199,-0.018791826819399213,0.19577150890487538,0.0
0.06969908710707272,-0.01881650314527788,0.19579511234702018,0.0
0.06970901128161087,-0.01897689926348916,0.19578304240501432,0.0
0.06972161766548367,-0.018958392019080166,0.19576560804433918,0.0
0.06972242232828406,-0.018787803505397258,0.19575836607913566,0.0
0.0697310053981549,-0.018795850133401168,0.1957551474279341,0.0
0.06973583337495724,-0.018958392019080166,0.19579618523075404,0.0
0.0697183990142821,-0.018957587356279774,0.19578223774221393,0.0
0.06971866723521557,-0.018788876389131112,0.19576855847460728,0.0
0.06970767017694356,-0.01873764619083955,0.19578036019567968,0.0
0.06972751852601987,-0.018934252135068434,0.19580959627742722,0.0
0.06974897620069696,-0.01893827544907039,0.195818715789165,0.0
0.06974763509602964,-0.01882535443608218,0.19583373616143895,0.0
0.06973958846802573,-0.018693657957751506,0.1958541209523822,0.0
0.06973636981682417,-0.018835278610620336,0.19584044168477555,0.0
0.06972778674695333,-0.018949004286408937,0.19583400438237242,0.0
0.06970767017694356,-0.018828036645416817,0.19582327554503387,0.0
0.06969264980466959,-0.018667372306272065,0.19584500144064443,0.0
0.06974629399136233,-0.01877117380752251,0.19586270402225303,0.0
0.06976533767763825,-0.01892888771639916,0.195811205603028,0.0
0.06975031730536428,-0.01888302193677687,0.19582354376596733,0.0
0.0697457575494954,-0.01873764619083955,0.1958289081846366,0.0
0.06974307534016076,-0.018813820935943235,0.1958680684409223,0.0
0.06973905202615881,-0.01892808305359877,0.19584795187091253,0.0
0.0697183990142821,-0.018920304646528323,0.19581978867289884,0.0
0.06973181006095529,-0.018678905806411003,0.1958946223133352,0.0
0.0697457575494954,-0.018707337225358153,0.19590776513907493,0.0
0.06973958846802573,-0.018929960600133015,0.19588335703412973,0.0
0.06975326773563238,-0.018874438866906033,0.19589730452266985,0.0
0.06974119779362652,-0.018731477109369885,0.1958747739642589,0.0
0.06973127361908836,-0.018682660899479495,0.195866727336255,0.0
0.06974146601455998,-0.01886907444823676,0.19582327554503387,0.0
0.06974897620069696,-0.01890984403012324,0.1958554620570495,0.0
0.0697331511656226,-0.0187660776097867,0.19585814426638415,0.0
0.06973556515402378,-0.018699558818287706,0.19585948537105147,0.0
0.06974763509602964,-0.018854054075962794,0.19587879727826085,0.0
0.06972054478174981,-0.01891654955345983,0.19584553788251136,0.0
0.0697162532468144,-0.018766345830720163,0.19585599849891644,0.0
0.06972081300268328,-0.018660666782935473,0.19588845323186554,0.0
0.06971196171187898,-0.018850567203827766,0.19588550280159744,0.0
0.06975219485189853,-0.018965097542416758,0.19581952045196538,0.0
0.06974414822389462,-0.018857004506230894,0.19584258745224326,0.0
0.06970820661881048,-0.018727185574434466,0.19583159039397124,0.0
0.06975863215430166,-0.01882535443608218,0.19583829591730784,0.0
0.0697546088402997,-0.018980922577491115,0.1958149606960965,0.0
0.06973154184002182,-0.018876584634373743,0.19581978867289884,0.0
0.06973958846802573,-0.018739523737373795,0.19580289075409063,0.0
0.0697516584100316,-0.018775465342457928,0.19583319971957203,0.0
0.06973154184002182,-0.018948736065475473,0.19579082081208476,0.0
0.06975326773563238,-0.018870683773837542,0.19581227848676186,0.0
0.06975836393336819,-0.0187092147718924,0.1958015496494233,0.0
0.06977874872431143,-0.018711628760293572,0.19580369541689102,0.0
0.06976185080550322,-0.018899383413718156,0.1957779462072785,0.0
0.06976855632883981,-0.01889375077411542,0.19575192877673253,0.0
0.0697996699571216,-0.018714042748694745,0.19577150890487538,0.0
0.06979859707338774,-0.0187092147718924,0.19579457590515326,0.0
0.06976372835203747,-0.018905016053320893,0.19574710079993018,0.0
0.06976667878230557,-0.01895141827481011,0.19575407454420024,0.0
0.06976775166603942,-0.01881945357554598,0.19585170696398102,0.0
0.06976238724737015,-0.018727722016301393,0.19581603357983035,0.0
0.0697790169452449,-0.01887712107624067,0.19578867504461706,0.0
0.0697546088402997,-0.01899379718229737,0.19571706005538225,0.0
0.06977418896844255,-0.018835815052487263,0.19577258178860923,0.0
0.06977499363124294,-0.018679978690144858,0.19574388214872862,0.0
0.0697760665149768,-0.018856199843430503,0.19573610374165817,0.0
0.06977687117777719,-0.018951150053876646,0.1957484419045975,0.0
0.06978330848018031,-0.018873097762238715,0.19572215625311806,0.0
0.06977284786377523,-0.01878807172633072,0.1957012350203079,0.0
0.06978089449177914,-0.01888811813451268,0.1957698995792746,0.0
0.06977660295684372,-0.019020887496577203,0.1957210833693842,0.0
0.06978438136391417,-0.018965633984283685,0.19574119993939398,0.0
0.06977392074750909,-0.018789949272864967,0.1957618529512707,0.0
0.06977177498004138,-0.018857004506230894,0.1957728500095427,0.0
0.06976372835203747,-0.019043418054988152,0.19577258178860923,0.0
0.0697672152241725,-0.01901337731044022,0.1957698995792746,0.0
0.06978464958484763,-0.018851103645694693,0.19576936313740767,0.0
0.06978008982897875,-0.018847616773559665,0.19577043602114153,0.0
0.06976533767763825,-0.019054415113260163,0.19581549713796342,0.0
0.06975970503803551,-0.019057365543528264,0.19579323480048594,0.0
0.06976560589857171,-0.01887926684370838,0.19574119993939398,0.0
0.06974709865416272,-0.01889455543691581,0.19574790546273058,0.0
0.06975997325896897,-0.019044490938722007,0.19582783530090275,0.0
0.06977204320097484,-0.019017400624442175,0.1958348090451728,0.0
0.06978572246858149,-0.018849226099160447,0.19583373616143895,0.0
0.0697900140035169,-0.018773051354056755,0.19584124634757594,0.0
0.06980610725952473,-0.018956246251612456,0.1958466107662452,0.0
0.06979940173618814,-0.019015254856974466,0.19580181787035678,0.0
0.06976426479390439,-0.01892513262333067,0.1957492465673979,0.0
0.06977284786377523,-0.018790485714731894,0.19587289641772465,0.0
0.069781967375513,-0.018969389077352176,0.1958975727436033,0.0
0.06979215977098462,-0.01903805363631888,0.19589489053426867,0.0
0.06979645130592003,-0.018933447472268043,0.19591125201120996,0.0
0.06980074284085545,-0.01881194338940899,0.19590561937160722,0.0
0.06981415388752864,-0.018926473727997987,0.19589435409240175,0.0
0.06980583903859126,-0.01904100406658698,0.195866727336255,0.0
0.06979457375938579,-0.018962147112148657,0.19588684390626476,0.0
0.06978813645698266,-0.018775733563391392,0.19594585251162677,0.0
0.06980154750365584,-0.018783780191395302,0.19595792245363264,0.0
0.06977713939871065,-0.018988432763628098,0.19593485545335476,0.0
0.06977365252657562,-0.018961342449348266,0.1959005231738714,0.0
0.06978518602671456,-0.018728794900035248,0.19592627238348392,0.0
0.06976506945670478,-0.018753203004980443,0.1959691877328381,0.0
0.0697811627127126,-0.018954100484144747,0.19597911190737627,0.0
0.06978920934071652,-0.01892003642559486,0.19598286700044476,0.0
0.06976238724737015,-0.01874998435377888,0.19600754332632342,0.0
0.06974441644482808,-0.018740060179240722,0.19600191068672068,0.0
0.06977633473591026,-0.018936666123469607,0.19598689031444672,0.0
0.06979430553845233,-0.01892674194893145,0.19602417302419817,0.0
0.06979457375938579,-0.018780293319260274,0.1960011060239203,0.0
0.0697996699571216,-0.018680515132011785,0.19603597474527057,0.0
0.06980342505019009,-0.018864514692367877,0.19604697180354258,0.0
0.06980235216645624,-0.018931301704800334,0.19599332761684984,0.0
0.06979940173618814,-0.01882401333141486,0.195992254733116,0.0
0.06979886529432121,-0.01866924985280631,0.1960837180714271,0.0
0.0698026203873897,-0.01878726706353033,0.1960933740250318,0.0
0.0698026203873897,-0.01889750586718391,0.1960912282575641,0.0
0.06979189155005115,-0.018802019214870833,0.1960799629783586,0.0
0.0697900140035169,-0.018648328619996143,0.19609766555996722,0.0
0.06979859707338774,-0.0187778793308591,0.19608935071102984,0.0
0.06979108688725076,-0.018910380471990167,0.19606574726888504,0.0
0.06978330848018031,-0.018856199843430503,0.19602953744286744,0.0
0.06977445718937601,-0.01868453844601374,0.19605072689661107,0.0
0.06979618308498657,-0.018729867783769102,0.1960984702227676,0.0
0.06977982160804529,-0.018892677890381564,0.19607459855968934,0.0
0.06977204320097484,-0.018819721796479442,0.196051263338478,0.0
0.06978867289884959,-0.0186641536550705,0.1960660154898185,0.0
0.06979537842218618,-0.018688025318148768,0.19612690164171476,0.0
0.06979725596872043,-0.018840911250223073,0.1961435313395895,0.0
0.06978760001511573,-0.018845202785158492,0.19613333894411789,0.0
0.06979484198031925,-0.01871377452776128,0.19616069747933118,0.0
0.06980074284085545,-0.018631162480254468,0.1961818869330748,0.0
0.06980208394552277,-0.018818648912745588,0.1961746449678713,0.0
0.0697841131429807,-0.018823745110481398,0.1961700852120024,0.0
0.06977472541030948,-0.01871136053936011,0.19614889575825878,0.0
0.06978760001511573,-0.01862123830571631,0.1961856420261433,0.0
0.06979511020125272,-0.018810334063808207,0.19618161871214135,0.0
0.06979135510818422,-0.018850298982894302,0.19615157796759342,0.0
0.0697878682360492,-0.01873764619083955,0.1961915428866795,0.0
0.06977740761964411,-0.018631162480254468,0.1962003941774838,0.0
0.06977982160804529,-0.01880550608700586,0.19619851663094956,0.0
0.06977579829404333,-0.018929960600133015,0.19617035343293587,0.0
0.06978840467791612,-0.01882615909888257,0.19615345551412766,0.0
0.06981066701539361,-0.01863706334079067,0.19619127466574604,0.0
0.06981656787592981,-0.01874274238857536,0.19618886067734487,0.0
0.06979618308498657,-0.01886022315743246,0.19612529231611397,0.0
0.06978652713138188,-0.01881060228474167,0.19611670924624314,0.0
0.06978008982897875,-0.018679174027344467,0.19616901232826855,0.0
0.06979591486405311,-0.01874140128390804,0.1961510415257265,0.0
0.06981093523632707,-0.01884573922702542,0.196128779188249,0.0
0.06977257964284177,-0.018807115412606643,0.19612985207198286,0.0
0.0697516584100316,-0.018678101143610612,0.1961148316997089,0.0
0.06980744836419205,-0.018649669724663462,0.19612100078117856,0.0
0.06984419463207657,-0.018797995900868877,0.19611268593224118,0.0
0.0698173725387302,-0.018754275888714297,0.19607030702475392,0.0
0.0697516584100316,-0.01864162309665955,0.19613065673478325,0.0
0.06975648638683395,-0.018656643468933518,0.19621353700322353,0.0
0.06978384492204724,-0.018832059959418772,0.19621326878229006,0.0
0.06981120345726054,-0.018868001564502905,0.19618591024707677,0.0
0.06980342505019009,-0.018653693038665417,0.19624089553843682,0.0
0.06974602577042886,-0.018638136224524524,0.196261816771247,0.0
0.06975326773563238,-0.01878351197046184,0.19628032401565598,0.0
0.06975192663096506,-0.018830182412884526,0.19616767122360124,0.0
0.06974119779362652,-0.018756958098048934,0.19618725135174409,0.0
0.06975594994496702,-0.018585833142499106,0.1963031227950004,0.0
0.06976372835203747,-0.018746229260710387,0.1962787146900552,0.0
0.06974924442163043,-0.01883420572688648,0.19625457480604347,0.0
0.06975675460776741,-0.01877278313312329,0.19634684280715498,0.0
0.06976801988697288,-0.018599780631039217,0.19663652141529575,0.0
0.06978008982897875,-0.018699558818287706,0.19655310470498855,0.0
0.06977713939871065,-0.01882750020354989,0.19624062731750336,0.0
0.06976962921257367,-0.01877331957499022,0.1962500150501746,0.0
0.06976882454977328,-0.01860648615437581,0.1962462599571061,0.0
0.0697723114219083,-0.01867568715520944,0.1963229711440767,0.0
0.06977848050337797,-0.018871756657571397,0.19637822465637023,0.0
0.0697693609916402,-0.018869342669170223,0.19634389237688687,0.0
0.06976667878230557,-0.018666031201604746,0.19639673190077922,0.0
0.06979162332911769,-0.018643500643193797,0.19642918663372833,0.0
0.06981388566659517,-0.018820794680213297,0.19640316920318235,0.0
0.06978545424764802,-0.018906088937054748,0.19640585141251699,0.0
0.06978894111978305,-0.018647792178129216,0.19642462687785944,0.0
0.06977284786377523,-0.018573226758626313,0.19651689487897095,0.0
0.0697900140035169,-0.018845471006091956,0.1964619095876109,0.0
0.06978867289884959,-0.018857272727164358,0.19631036476020391,0.0
0.06977284786377523,-0.018649133282796534,0.1962765689225875,0.0
0.06974227067736037,-0.01864725573626229,0.1963599856328947,0.0
0.06978008982897875,-0.018736841528039158,0.19638600306344067,0.0
0.06980074284085545,-0.018750252574712342,0.19635971741196123,0.0
0.06975541350310009,-0.018736573307105694,0.19634335593501995,0.0
0.0697672152241725,-0.018568935223690894,0.19635220722582425,0.0
0.06976399657297093,-0.01872155293483173,0.19636615471436436,0.0
0.0697664105613721,-0.018832059959418772,0.1964219446685248,0.0
0.0697849178057811,-0.018725039806966756,0.19638680772624106,0.0
0.06979537842218618,-0.018496247350722233,0.19637205557490056,0.0
0.06979350087565193,-0.01861828787544821,0.19640826540091816,0.0
0.0697811627127126,-0.018789949272864967,0.19639995055198078,0.0
0.06975594994496702,-0.018737914411773013,0.19648202615762067,0.0
0.06975916859616858,-0.018588783572767206,0.19647773462268525,0.0
0.06979484198031925,-0.018644573526927652,0.1963157291788732,0.0
0.06981066701539361,-0.018820794680213297,0.19634281949315302,0.0
0.06979215977098462,-0.018731477109369885,0.19634121016755224,0.0
0.0697870635732488,-0.01855123264208229,0.19643589215706492,0.0
0.06978250381737992,-0.018619092538248602,0.19644903498280464,0.0
0.06979215977098462,-0.01876822337725441,0.1964138980405209,0.0
0.06980208394552277,-0.018727185574434466,0.19638037042383794,0.0
0.06980020639898853,-0.018505098641526534,0.19640075521478118,0.0
0.06978518602671456,-0.018509658397395417,0.19648122149482028,0.0
0.0697870635732488,-0.01875964030738357,0.19644206123853458,0.0
0.06978894111978305,-0.018702241027622343,0.1964434023432019,0.0
0.0697841131429807,-0.01861158235211162,0.1965069707044328,0.0
0.06978947756164998,-0.018518777909133182,0.19660353024047972,0.0
0.06979698774778696,-0.018673809608675193,0.19657080728659715,0.0
0.06980181572458931,-0.018744619935109605,0.19643481927333106,0.0
0.06978250381737992,-0.018730940667502957,0.19645332651774006,0.0
0.06978357670111378,-0.018573226758626313,0.1964589591573428,0.0
0.06978813645698266,-0.018745156376976532,0.1964581544945424,0.0
0.06978733179418227,-0.018832864622219163,0.19650455671603162,0.0
0.06978062627084568,-0.018718602504563628,0.19646727400628017,0.0
0.06975326773563238,-0.018604608607841563,0.19645118075027235,0.0
0.06975675460776741,-0.018748106807244633,0.19649490076242693,0.0
0.06977660295684372,-0.018880876169309162,0.19649704652989464,0.0
0.06978545424764802,-0.018799337005536196,0.19647558885521754,0.0
0.06978062627084568,-0.018582078049430614,0.19649007278562458,0.0
0.06979108688725076,-0.01856786233995704,0.19650750714629972,0.0
0.06976399657297093,-0.01879531369153424,0.1964543994014739,0.0
0.06977365252657562,-0.01877841577272603,0.19650804358816665,0.0
0.06978947756164998,-0.018556597060751565,0.19653540212337994,0.0
0.06977955338711182,-0.018572153874892458,0.19655685979805704,0.0
0.06979215977098462,-0.01874435171417614,0.19652494150697486,0.0
0.06977204320097484,-0.018773051354056755,0.19649865585549542,0.0
0.06975729104963434,-0.018717797841763237,0.1965386207745815,0.0
0.06978008982897875,-0.018554451293283855,0.196571880170331,0.0
0.06978733179418227,-0.018722089376698656,0.19653996187924883,0.0
0.0697782122824445,-0.018793972586866922,0.19657161194939754,0.0
0.06977874872431143,-0.018622847631317094,0.19659146029847385,0.0
0.06980208394552277,-0.018528433862737875,0.19658931453100614,0.0
0.06978384492204724,-0.018760444970183962,0.1965343292396461,0.0
0.06979055044538383,-0.01880175099393737,0.19661425907781827,0.0
0.06980208394552277,-0.01865020616653039,0.1966316934384934,0.0
0.06979135510818422,-0.01855257374674961,0.19660701711261475,0.0
0.06978679535231534,-0.01872906312096871,0.1966472502526343,0.0
0.06978008982897875,-0.01883983836648922,0.19662445147328989,0.0
0.0697841131429807,-0.018696608388019606,0.19664778669450123,0.0
0.06979752418965389,-0.018545063560612626,0.1966287430082253,0.0
0.06979993817805506,-0.018643232422260334,0.19668453296238578,0.0
0.06979993817805506,-0.018759103865516644,0.19670223554399438,0.0
0.0697849178057811,-0.018700095260154634,0.19675292930041902,0.0
0.06976506945670478,-0.01859280688676916,0.19670196732306092,0.0
0.06978947756164998,-0.018672468504007875,0.196675413450648,0.0
0.06977472541030948,-0.01882830486635028,0.1966636117295756,0.0
0.06977070209630752,-0.018792631482199604,0.19666468461330947,0.0
0.06977123853817445,-0.018567057677156648,0.19669016560198851,0.0
0.0697398566889592,-0.01861882431731514,0.1966842647414523,0.0
0.06975997325896897,-0.0187778793308591,0.19664885957823508,0.0
0.06976801988697288,-0.018821599343013688,0.19664537270610005,0.0
0.0697760665149768,-0.018656643468933518,0.1966523464503701,0.0
0.0697790169452449,-0.018592538665835698,0.19666280706677522,0.0
0.06978384492204724,-0.01876768693538748,0.1966606612993075,0.0
0.06977848050337797,-0.01879102215659882,0.1965895827519396,0.0
0.06975648638683395,-0.018757226318982398,0.19661345441501787,0.0
0.06976480123577132,-0.01863062603838754,0.1966925795903897,0.0
0.06976775166603942,-0.018821599343013688,0.19667460878784762,0.0
0.0697782122824445,-0.018869610890103687,0.19666924436917835,0.0
0.06978277203831339,-0.01876473650511938,0.19664269049676542,0.0
0.06977848050337797,-0.0186102412474443,0.19665529688063824,0.0
0.06976587411950518,-0.018789949272864967,0.19663705785716268,0.0
0.06977928516617836,-0.018931569925733797,0.19673254450947578,0.0
0.06978974578258344,-0.018764468284185917,0.1967376407072116,0.0
0.06976909277070674,-0.01862043364291592,0.19673549493974388,0.0
0.06978250381737992,-0.01876473650511938,0.19674890598641706,0.0
0.06976775166603942,-0.018903674948653575,0.19674139580028008,0.0
0.06976506945670478,-0.018849226099160447,0.1967263754280061,0.0
0.0697731160847087,-0.018681319794812176,0.19672369321867147,0.0
0.06977553007310987,-0.018730136004702566,0.19674541911428203,0.0
0.0697900140035169,-0.018882753715843408,0.19678592047523505,0.0
0.06977445718937601,-0.018874438866906033,0.19675936660282214,0.0
0.0697672152241725,-0.018742474167641895,0.19674085935841315,0.0
0.06976855632883981,-0.01870411857415659,0.19675319752135248,0.0
0.0697849178057811,-0.018860491378365922,0.1967832382659004,0.0
0.06977472541030948,-0.01883420572688648,0.19674166402121354,0.0
0.06977928516617836,-0.018704655016023516,0.19670625885799634,0.0
0.0697900140035169,-0.01864806039906268,0.19678672513803544,0.0
0.06976775166603942,-0.018855395180630112,0.19674997887015092,0.0
0.06974978086349735,-0.018898578750917765,0.19678672513803544,0.0
0.06976533767763825,-0.018780561540193738,0.19678270182403348,0.0
0.06975863215430166,-0.01868239267854603,0.19671993812560298,0.0
0.06975514528216663,-0.018887849913579217,0.19674434623054818,0.0
0.06977365252657562,-0.018940689437471563,0.19679262599857164,0.0
0.06978920934071652,-0.018823476889547934,0.19675185641668516,0.0
0.06976855632883981,-0.018697949492686924,0.1967389818118789,0.0
0.06977257964284177,-0.018799337005536196,0.19674890598641706,0.0
0.06974441644482808,-0.018956782693479383,0.19674434623054818,0.0
0.06974388000296115,-0.018873902425039106,0.19672905763734075,0.0
0.06975326773563238,-0.01868668421348145,0.1967301305210746,0.0
0.06976399657297093,-0.018800141668336587,0.19671135505573215,0.0
0.06978438136391417,-0.018922450413996032,0.19670974573013136,0.0
0.06978277203831339,-0.018868806227303296,0.19673147162574192,0.0
0.06975058552629775,-0.018751057237512733,0.1967596348237556,0.0
0.06973744270055802,-0.018818648912745588,0.19676499924242488,0.0
0.06974334356109423,-0.018948736065475473,0.1967027719858613,0.0
0.06975541350310009,-0.018946858518941227,0.19671966990466952,0.0
0.06975058552629775,-0.018791290377532285,0.19674300512588086,0.0
0.06977499363124294,-0.018766345830720163,0.19679718575444052,0.0
0.06978143093364607,-0.018934252135068434,0.19682937226645617,0.0
0.06976453301483786,-0.01890340672772011,0.19681596121978298,0.0
0.06975916859616858,-0.01878807172633072,0.1968135472313818,0.0
0.06975621816590048,-0.018747570365377705,0.19682776294085538,0.0
0.06976453301483786,-0.01891359912319173,0.19686504565060683,0.0
0.06976587411950518,-0.018921913972129105,0.1968417104293955,0.0
0.06974522110762847,-0.018810065842874743,0.19683768711539354,0.0
0.06973851558429188,-0.018708141888158544,0.19683661423165968,0.0
0.06975407239843277,-0.018903674948653575,0.1968122061267145,0.0
0.06975326773563238,-0.018921377530262178,0.19686585031340723,0.0
0.0697546088402997,-0.01883769259902151,0.19687657915074577,0.0
0.0697516584100316,-0.018683197341346422,0.19686504565060683,0.0
0.06975380417749931,-0.01882830486635028,0.19686129055753834,0.0
0.06976801988697288,-0.018898578750917765,0.19680791459177907,0.0
0.06974709865416272,-0.018802019214870833,0.1967877980217693,0.0
0.06974119779362652,-0.01870063170202156,0.19686102233660488,0.0
0.06975434061936624,-0.0187719784703229,0.19690876566276141,0.0
0.06975031730536428,-0.01891494022785905,0.196848952394599,0.0
0.06974173423549344,-0.018905284274254357,0.1968299087083231,0.0
0.06974307534016076,-0.0187180660626967,0.19685699902260292,0.0
0.06975997325896897,-0.018814625598743633,0.19685780368540332,0.0
0.06977472541030948,-0.018919499983727932,0.19691064320929566,0.0
0.06975299951469892,-0.01891145335572402,0.196848952394599,0.0
0.06975112196816467,-0.018737914411773013,0.19685834012727024,0.0
0.06975514528216663,-0.01872745379536793,0.19678592047523505,0.0
0.06976587411950518,-0.01895651447254592,0.19686719141807454,0.0
0.06977177498004138,-0.018925669065197596,0.19687845669728002,0.0
0.06975836393336819,-0.01878646240072994,0.19685163460393365,0.0
0.06975648638683395,-0.01873845085363994,0.19684224687126242,0.0
0.06977257964284177,-0.01892969237919955,0.19683232269672427,0.0
0.06976131436363629,-0.018974217054154523,0.19680094084750901,0.0
0.06976506945670478,-0.018823476889547934,0.19677116832389455,0.0
0.06977338430564216,-0.01873415931870452,0.19675883016095522,0.0
0.06978679535231534,-0.018932911030401116,0.19677975139376538,0.0
0.06978143093364607,-0.019015791298841393,0.19677170476576147,0.0
0.06977660295684372,-0.018929155937332624,0.1967743869750961,0.0
0.06979403731751886,-0.01879370436593346,0.19679503998697281,0.0
0.06978733179418227,-0.01893398391413497,0.19679021201017047,0.0
0.06978733179418227,-0.01898575055429346,0.1967692907773603,0.0
0.06978277203831339,-0.018958123798146702,0.1967368360444112,0.0
0.06978330848018031,-0.018776001784324856,0.1967057224161294,0.0
0.06976855632883981,-0.018903674948653575,0.19673415383507656,0.0
0.0697487079797635,-0.019045295601522398,0.19678270182403348,0.0
0.06974736687509618,-0.01897689926348916,0.19679048023110393,0.0
0.06974495288669501,-0.01878726706353033,0.19682588539432114,0.0
0.06974307534016076,-0.018819185354612515,0.19682561717338767,0.0
0.06974629399136233,-0.019045563822455862,0.19686129055753834,0.0
0.06975299951469892,-0.019026788357113404,0.19687014184834264,0.0
0.06976962921257367,-0.018830182412884526,0.19686424098780644,0.0
0.0697672152241725,-0.018830182412884526,0.19687094651114304,0.0
0.06978733179418227,-0.019042076950320834,0.19686182699940527,0.0
0.06977177498004138,-0.019028934124581114,0.19682937226645617,0.0
0.06975782749150126,-0.01889321433224849,0.19679906330097477,0.0
0.06976694700323903,-0.018832059959418772,0.19679048023110393,0.0
0.06977043387537406,-0.019038321857252342,0.19679638109164013,0.0
0.06977070209630752,-0.019034834985117315,0.1968004044056421,0.0
0.0697693609916402,-0.018899383413718156,0.1967722412076284,0.0
0.0697752618521764,-0.018745156376976532,0.19680415949871058,0.0
0.06975380417749931,-0.018946053856140836,0.19680362305684365,0.0
0.06974495288669501,-0.019001575589367818,0.19674917420735052,0.0
0.06972885963068719,-0.018927546611731842,0.19674890598641706,0.0
0.06974361178202769,-0.018765541167919772,0.19678457937056773,0.0
0.06974173423549344,-0.0188865088089119,0.19677706918443075,0.0
0.06974307534016076,-0.01903081167111536,0.19676499924242488,0.0
0.06974843975883004,-0.018916281332526368,0.1967958446497732,0.0
0.0697213494445502,-0.018738719074573404,0.19672744831173997,0.0
0.06973127361908836,-0.018877389297174134,0.19683607778979276,0.0
0.0697310053981549,-0.019010158659238656,0.1967945035451059,0.0
0.06973368760748953,-0.018975021716954914,0.1967781420681646,0.0
0.06974629399136233,-0.018808188296340497,0.1967743869750961,0.0
0.06974468466576154,-0.01883983836648922,0.19676178059122332,0.0
0.0697272503050864,-0.018974217054154523,0.19680737814991214,0.0
0.06973288294468914,-0.018952491158543965,0.19679101667297086,0.0
0.06973502871215685,-0.018773856016857146,0.19676794967269298,0.0
0.06973288294468914,-0.01878002509832681,0.19682347140591996,0.0
0.06974388000296115,-0.018930497041999943,0.1968645092087399,0.0
0.06974092957269305,-0.018919499983727932,0.19685002527833287,0.0
0.06975004908443082,-0.018759908528317035,0.19684573374339745,0.0
0.06975970503803551,-0.018697949492686924,0.1968513663830002,0.0
0.06976319191017054,-0.018887581692645754,0.19685512147606868,0.0
0.06975568172403356,-0.01894551741427391,0.1968497570573994,0.0
0.06975326773563238,-0.018860759599299386,0.19685485325513521,0.0
0.06975407239843277,-0.018748911470045024,0.19694899880278097,0.0
0.06975407239843277,-0.018887045250778826,0.19696080052385337,0.0
0.06974253889829383,-0.01895731913534631,0.19687228761581035,0.0
0.0697516584100316,-0.018882485494909944,0.1969259318025031,0.0
0.06975648638683395,-0.018698754155487315,0.19697957598919583,0.0
0.0697575592705678,-0.01881274805220938,0.19697877132639544,0.0
0.06975836393336819,-0.018947394960808155,0.19696401917505493,0.0
0.06975836393336819,-0.01888865457637961,0.19695275389584946,0.0
0.06975058552629775,-0.018751861900313124,0.19695731365171834,0.0
0.0697701656544406,-0.018851103645694693,0.19697421157052655,0.0
0.0697870635732488,-0.018955978030678992,0.19693666063984164,0.0
0.06978277203831339,-0.018895628320649664,0.1969074245580941,0.0
0.06977284786377523,-0.018746765702577314,0.19689589105795516,0.0
0.06977713939871065,-0.018832328180352235,0.196952485674916,0.0
0.06978277203831339,-0.01901713240350871,0.19697582089612733,0.0
0.06977123853817445,-0.019020351054710276,0.1969508763493152,0.0
0.06976292368923707,-0.018822940447681007,0.19697260224492577,0.0
0.06977928516617836,-0.01876393184231899,0.1970291968618866,0.0
0.0697782122824445,-0.018929424158266088,0.19701873624548152,0.0
0.06978330848018031,-0.018962951774949048,0.1969916459312017,0.0
0.0697878682360492,-0.018851371866628157,0.19701846802454806,0.0
0.0697849178057811,-0.018775197121524465,0.19698923194280052,0.0
0.06979725596872043,-0.018944444530540054,0.19704582655976136,0.0
0.06976667878230557,-0.019056829101661336,0.19699835145453828,0.0
0.06978438136391417,-0.01886773334356944,0.19703536594335627,0.0
0.06979055044538383,-0.018761249632984353,0.19702275955948348,0.0
0.06980342505019009,-0.018876048192506815,0.1970426079085598,0.0
0.06979564664311964,-0.018950881832943182,0.19701712691988074,0.0
0.06981066701539361,-0.01884064302928961,0.19695972764011951,0.0
0.06980449793392395,-0.01870358213228966,0.196981989977597,0.0
0.06979242799191808,-0.018906088937054748,0.19706782067630538,0.0
0.06980744836419205,-0.01900533068243631,0.19705333674589834,0.0
0.06980288860832316,-0.018911185134790558,0.19701980912921538,0.0
0.06978464958484763,-0.01873845085363994,0.1970018383266733,0.0
0.06978464958484763,-0.018851103645694693,0.19700666630347566,0.0
0.06979189155005115,-0.0190031849149686,0.19700076544293946,0.0
0.06979806063152082,-0.018914672006925586,0.196933978430507,0.0
0.06980691192232512,-0.01874488815604307,0.19692405425596884,0.0
0.06981013057352668,-0.01880255565673776,0.19694229327944437,0.0
0.06981764075966367,-0.01906138885753022,0.19696696960532303,0.0
0.06979537842218618,-0.019010695101105583,0.1969811853147966,0.0
0.06978223559644646,-0.01884144769209,0.19695945941918605,0.0
0.06978625891044841,-0.018828573087283744,0.19694980346558136,0.0
0.0697841131429807,-0.01901042688017212,0.19695436322145024,0.0
0.06977713939871065,-0.01905629265979441,0.19692324959316845,0.0
0.06980208394552277,-0.018887045250778826,0.19694685303531326,0.0
0.06980905768979283,-0.018835010389686872,0.19694229327944437,0.0
0.06980744836419205,-0.019018741729109494,0.19692673646530348,0.0
0.06980744836419205,-0.019063266404064465,0.19695892297731912,0.0
0.06979215977098462,-0.01893022882106648,0.19692968689557158,0.0
0.06980932591072629,-0.01879826412180234,0.19693558775610778,0.0
0.06980959413165976,-0.018957587356279774,0.19694685303531326,0.0
0.0697967195268535,-0.019060315973796364,0.19694846236091404,0.0
0.06980476615485741,-0.018959733123747484,0.19694336616317823,0.0
0.06979913351525467,-0.018816771366211342,0.19692459069783577,0.0
0.06981978652713138,-0.01890474783238743,0.196944975488779,0.0
0.06979779241058735,-0.01907238591580223,0.19693075977930544,0.0
0.06979055044538383,-0.01896161067028173,0.19694551193064594,0.0
0.0697811627127126,-0.018806578970739715,0.19692324959316845,0.0
0.06980208394552277,-0.018940957658405026,0.19700291121040717,0.0
0.0698329293528711,-0.019047441368990108,0.19698091709386314,0.0
0.06982676027140143,-0.019046368485256253,0.19695329033771639,0.0
0.0698270284923349,-0.01890045629745201,0.19709705675805292,0.0
0.06981871364339752,-0.01892727839079838,0.1971311208166028,0.0
0.06980771658512551,-0.019062729962197537,0.19712280596766543,0.0
0.06980530259672434,-0.019034834985117315,0.19710993136285918,0.0
0.06980127928272238,-0.018861564262099777,0.19708042706017817,0.0
0.06979564664311964,-0.01886478291330134,0.19708874190911554,0.0
0.06981361744566171,-0.01906219352033061,0.1970721122112408,0.0
0.06980878946885936,-0.019073995241403012,0.19702866042001968,0.0
0.06979913351525467,-0.01896161067028173,0.19699540102427018,0.0
0.06980476615485741,-0.018871756657571397,0.19701712691988074,0.0
0.06980878946885936,-0.01907104481113491,0.19702383244321733,0.0
0.06980610725952473,-0.019113960160489104,0.19697126114025845,0.0
0.06980449793392395,-0.018958392019080166,0.19694014751197667,0.0
0.06981415388752864,-0.01879665479620156,0.19698225819853046,0.0
0.06982568738766758,-0.018969120856418713,0.1970152493733465,0.0
0.06980288860832316,-0.019143732684103573,0.1969575818726518,0.0
0.06980396149205702,-0.01904690492712318,0.19711207713032688,0.0
0.06980208394552277,-0.018829377750084135,0.1971429225376752,0.0
0.06978652713138188,-0.019001575589367818,0.1968527074876675,0.0
0.06979752418965389,-0.019112082613954858,0.19689454995328784,0.0
0.06979403731751886,-0.019025447252446086,0.19694095217477706,0.0
0.06978947756164998,-0.01885083542476123,0.19690581523249331,0.0
0.06979725596872043,-0.018899115192784692,0.19691198431396298,0.0
0.06980396149205702,-0.019067557938999884,0.196963482733188,0.0
0.06980020639898853,-0.019047441368990108,0.19694980346558136,0.0
0.06979725596872043,-0.018849762541027375,0.19694926702371443,0.0
0.06977445718937601,-0.018882753715843408,0.19695999586105298,0.0
0.06979484198031925,-0.019064071066864856,0.19699030482653437,0.0
0.06979511020125272,-0.01901471841510754,0.19698172175666354,0.0
0.06981013057352668,-0.018822940447681007,0.19697769844266158,0.0
0.06981039879446015,-0.018805237866072397,0.19698815905906666,0.0
0.06980878946885936,-0.019037248973518488,0.19693934284917627,0.0
0.06980825302699244,-0.019122275009426478,0.19691761695356572,0.0
0.06982300517833294,-0.018920572867461787,0.19697635733799426,0.0
0.0698203229689983,-0.01880631074980625,0.19699808323360482,0.0
0.0698262238295345,-0.018993260740430444,0.19698735439626627,0.0
0.06979725596872043,-0.019057365543528264,0.1969583865354522,0.0
0.0698085212479259,-0.018940152995604635,0.19704126680389247,0.0
0.0698203229689983,-0.01885164008756162,0.1970477041062956,0.0
0.06983373401567149,-0.018964829321483294,0.1970876690253817,0.0
0.06984553573674389,-0.019015791298841393,0.1970418032457594,0.0
0.06986082432995132,-0.018953027600410892,0.19707184399030733,0.0
0.06986457942301981,-0.018793972586866922,0.1970817681648455,0.0
0.06987155316728987,-0.018929960600133015,0.19711180890939342,0.0
0.06984634039954428,-0.019039394740986197,0.19707157576937387,0.0
0.06984955905074584,-0.018974485275087986,0.19706513846697074,0.0
0.06985599635314897,-0.018782439086727984,0.19712066020019772,0.0
0.06985572813221551,-0.01884788499449313,0.1971297797119355,0.0
0.06984017131807461,-0.01902437436871223,0.19715794290994917,0.0
0.0698388302134073,-0.01896241533308212,0.19718315567769476,0.0
0.06983453867847188,-0.018800678110203514,0.19711663688619577,0.0
0.06982273695739948,-0.018913867344125194,0.1971378263399394,0.0
0.06983641622500612,-0.01902142393844413,0.19723197188758515,0.0
0.06983346579473802,-0.01900238025216821,0.19722821679451666,0.0
0.06982810137606875,-0.01887122021570447,0.19721453752691,0.0
0.06983024714353646,-0.018820526459279834,0.1972376045271879,0.0
0.06983990309714115,-0.019001307368434354,0.19729849067908414,0.0
0.0698144221084621,-0.018997015833498936,0.19728373852774364,0.0
0.06980932591072629,-0.01889965163465162,0.19727059570200392,0.0
0.06982568738766758,-0.018829914191951062,0.19734113780750487,0.0
0.06983024714353646,-0.018950881832943182,0.19733094541203325,0.0
0.06982193229459908,-0.019018741729109494,0.19733845559817023,0.0
0.06981549499219596,-0.018912258018524412,0.19733523694696867,0.0
0.06983909843434076,-0.018776538226191783,0.19733979670283755,0.0
0.06983856199247383,-0.01894551741427391,0.1973733243195205,0.0
0.06982166407366562,-0.019037248973518488,0.19734784333084146,0.0
0.06982354162019987,-0.01893317925133458,0.19734140602843833,0.0
0.06981469032939557,-0.018774660679657537,0.1973711785520528,0.0
0.06982005474806484,-0.018919499983727932,0.19736474124964967,0.0
0.06982595560860104,-0.019053610450459772,0.19734221069123872,0.0
0.06983748910873998,-0.018939348332804244,0.19727086392293738,0.0
0.06984043953900808,-0.018791826819399213,0.19724001851558906,0.0
0.06982273695739948,-0.01892164575119564,0.1973062690861546,0.0
0.06978330848018031,-0.01907158125300184,0.1973003682256184,0.0
0.06979725596872043,-0.01907748211353804,0.1972494062482603,0.0
0.06980798480605897,-0.018841715913023464,0.19730385509775342,0.0
0.06980691192232512,-0.01884493456422503,0.19730197755121917,0.0
0.06981227634099439,-0.01903671253165156,0.19722848501545012,0.0
0.06980637548045819,-0.01901418197324061,0.1971791323636928,0.0
0.06980020639898853,-0.018835815052487263,0.19721131887570845,0.0
0.06980476615485741,-0.018797727679935414,0.19725208845759493,0.0
0.06980664370139165,-0.018984409449626143,0.1972190972827789,0.0
0.069792964433785,-0.019021155717510667,0.19717510904969085,0.0
0.06979806063152082,-0.018878998622774916,0.19716598953795308,0.0
0.06980691192232512,-0.018794777249667313,0.1971917387475656,0.0
0.06979779241058735,-0.01897984969375726,0.19716464843328577,0.0
0.0697760665149768,-0.019044222717788543,0.19719710316623487,0.0
0.06976426479390439,-0.018900724518385474,0.19719817604996873,0.0
0.06977848050337797,-0.01876688227258709,0.19719737138716834,0.0
0.0697996699571216,-0.018935593239735753,0.19721721973624465,0.0
0.06979752418965389,-0.01902276504311145,0.1971820827939609,0.0
0.06978223559644646,-0.018908771146389385,0.19714828695634448,0.0
0.069781967375513,-0.018783243749528375,0.19715687002621532,0.0
0.06981013057352668,-0.018891336785714245,0.19720032181743644,0.0
0.06980396149205702,-0.019023033264044913,0.19718261923582783,0.0
0.06980342505019009,-0.01900238025216821,0.19717296328222314,0.0
0.06982166407366562,-0.01881060228474167,0.19720783200357342,0.0
0.0698350751203388,-0.01887926684370838,0.19720488157330532,0.0
0.0698447310739435,-0.019013913752307147,0.19713916744460672,0.0
0.06981817720153059,-0.019028129461780723,0.19713675345620554,0.0
0.06981120345726054,-0.01888221727397648,0.19717645015435817,0.0
0.06981281278286132,-0.018849226099160447,0.19716303910768498,0.0
0.06980878946885936,-0.019016864182575248,0.1971769865962251,0.0
0.06980127928272238,-0.0190090857755048,0.19717752303809202,0.0
0.06979752418965389,-0.01884949432009391,0.19713138903753627,0.0
0.06977874872431143,-0.018784584854195693,0.19711288179312728,0.0
0.0697937690965854,-0.019002648473101673,0.19718422856142861,0.0
0.06980315682925663,-0.019040199403786588,0.19718342389862822,0.0
0.06980020639898853,-0.018889191018246536,0.19716572131701962,0.0
0.06981495855032903,-0.01876527294698631,0.19717135395662236,0.0
0.06979752418965389,-0.018997015833498936,0.19719629850343448,0.0
0.06978572246858149,-0.019035371426984242,0.19722392525958124,0.0
0.06980476615485741,-0.018887849913579217,0.19719817604996873,0.0
0.06979135510818422,-0.018818648912745588,0.197185033224229,0.0
0.069811471678194,-0.018948736065475473,0.19724323716679062,0.0
0.06981683609686327,-0.01902276504311145,0.197203540468638,0.0
0.06981066701539361,-0.018918158879060613,0.19716598953795308,0.0
0.06982139585273216,-0.018805774307939324,0.19717269506128968,0.0
0.06984419463207657,-0.018858345610898213,0.19722017016651275,0.0
0.06982676027140143,-0.01896751153081793,0.1971576746890157,0.0
0.06979913351525467,-0.01896751153081793,0.19719227518943253,0.0
0.06979752418965389,-0.01881355271500977,0.19724404182959102,0.0
0.06981227634099439,-0.01885512695969665,0.1972271439107828,0.0
0.06982193229459908,-0.019006403566170164,0.19718744721263018,0.0
0.0698026203873897,-0.018935861460669216,0.19714184965394135,0.0
0.06982595560860104,-0.01878136620299413,0.19718556966609593,0.0
0.06982568738766758,-0.018797995900868877,0.19725584355066342,0.0
0.06980932591072629,-0.019037248973518488,0.19726764527173582,0.0
0.06981066701539361,-0.018953027600410892,0.19732209412122895,0.0
0.06981093523632707,-0.018854858738763185,0.1973003682256184,0.0
0.06984258530647579,-0.018784048412328766,0.19729795423721722,0.0
0.06982461450393372,-0.018954905146945138,0.1972789105509413,0.0
0.06981308100379478,-0.018993260740430444,0.1972545024459961,0.0
0.06983239291100417,-0.018875779971573352,0.19726281729493347,0.0
0.06985170481821355,-0.01873925551644033,0.1973025139930861,0.0
0.06985197303914702,-0.018956246251612456,0.19731056062109,0.0
0.06983051536446992,-0.019037785415385415,0.19728159276027593,0.0
0.06983024714353646,-0.018886240587978435,0.19728963938827984,0.0
0.06984124420180847,-0.01875373944684737,0.19731163350482386,0.0
0.06985090015541316,-0.018887581692645754,0.1973113652838904,0.0
0.06984258530647579,-0.019003453135902064,0.19727113214387085,0.0
0.06985599635314897,-0.018922718634929496,0.1973172661444266,0.0
0.06983668444593959,-0.018787803505397258,0.19730492798148727,0.0
0.06985224126008048,-0.018858345610898213,0.1972869571789452,0.0
0.06984419463207657,-0.01898709165896078,0.19729312626041487,0.0
0.06983024714353646,-0.018950345391076255,0.1973357733888356,0.0
0.06981093523632707,-0.018810870505675134,0.19731968013282777,0.0
0.06984017131807461,-0.018840911250223073,0.1973829802731252,0.0
0.0698388302134073,-0.018966438647084076,0.19737600652885515,0.0
0.06981281278286132,-0.018951150053876646,0.1973357733888356,0.0
0.06981495855032903,-0.01882320866861447,0.1973341640632348,0.0
0.06983400223660495,-0.01882535443608218,0.19735615817977883,0.0
0.06984848616701199,-0.019028129461780723,0.19733523694696867,0.0
0.06984285352740925,-0.019031348112982287,0.19732665387709783,0.0
0.06984848616701199,-0.018848957878226984,0.19732048479562816,0.0
0.06984017131807461,-0.018773856016857146,0.19732155767936202,0.0
0.06982863781793568,-0.018978240368156478,0.19727542367880627,0.0
0.06984902260887892,-0.01902276504311145,0.19727998343467515,0.0
0.06984660862047774,-0.018845202785158492,0.19730600086522113,0.0
0.06983614800407266,-0.01878217086579452,0.19729849067908414,0.0
0.06984607217861082,-0.018955441588812065,0.1973564264007123,0.0
0.06984553573674389,-0.01902491081057916,0.19732423988869666,0.0
0.0698439264111431,-0.018904479611453966,0.19731163350482386,0.0
0.0698624336555521,-0.01877841577272603,0.19731833902816046,0.0
0.06989596127223506,-0.018869610890103687,0.1973652776915166,0.0
0.06988469599302959,-0.01899004208922888,0.19735320774951073,0.0
0.06987101672542294,-0.01892727839079838,0.1974347469132837,0.0
0.06988871930703154,-0.018759908528317035,0.19742911427368096,0.0
0.0698750400394249,-0.018865051134234805,0.1973985370872661,0.0
0.0698830866674288,-0.01898494589149307,0.1974478897390234,0.0
0.06988040445809417,-0.018927010169864915,0.19744225709942068,0.0
0.0698801362371607,-0.01875668987711547,0.19744306176222107,0.0
0.06987664936502568,-0.01881891713367905,0.1974503037274246,0.0
0.06986913917888869,-0.018979313251890333,0.19743742912261833,0.0
0.06987101672542294,-0.018934520356001898,0.1973947819941976,0.0
0.06988710998143076,-0.018742474167641895,0.19741811721540894,0.0
0.0698683345160883,-0.01878512129606262,0.19735857216818,0.0
0.06986431120208635,-0.018933447472268043,0.19735186664484342,0.0
0.06987182138822333,-0.0189463220770743,0.19737895695912325,0.0
0.0698624336555521,-0.01878726706353033,0.19733040897016632,0.0
0.06985492346941512,-0.018751057237512733,0.19732638565616437,0.0
0.06987933157436031,-0.01895436870507821,0.19730787841175537,0.0
0.06987906335342685,-0.01900828111270441,0.19732289878402934,0.0
0.06984848616701199,-0.018873902425039106,0.1973821756103248,0.0
0.0698565327950159,-0.018737377969906086,0.197377079412589,0.0
0.06987557648129182,-0.018920572867461787,0.19738056628472403,0.0
0.06987852691155992,-0.018935056797868825,0.19741060702927196,0.0
0.06986887095795523,-0.018856199843430503,0.1973947819941976,0.0
0.06986109255088478,-0.01872906312096871,0.19740551083153615,0.0
0.06986672519048752,-0.0188473485526262,0.1974132892386066,0.0
0.06984634039954428,-0.01892969237919955,0.19736098615658118,0.0
0.06984634039954428,-0.018830182412884526,0.19738727180806062,0.0
0.06986189721368517,-0.018706532562557762,0.19742106764567705,0.0
0.06987021206262255,-0.018806042528872788,0.19746666520436587,0.0
0.06986082432995132,-0.018966975088951003,0.19749858349544805,0.0
0.06987021206262255,-0.018907161820788602,0.197436088017951,0.0
0.06987530826035836,-0.018765004726052845,0.19744467108782185,0.0
0.06989327906290042,-0.018792095040332676,0.19753023356559676,0.0
0.06988710998143076,-0.018973144170420668,0.19748329490224062,0.0
0.06989140151636618,-0.018892677890381564,0.19745700925076118,0.0
0.06988576887676344,-0.018751057237512733,0.1974301871574148,0.0
0.06987906335342685,-0.018775733563391392,0.1974562045879608,0.0
0.0698683345160883,-0.01896590220521715,0.19745379059955961,0.0
0.06987182138822333,-0.018933447472268043,0.19744011133195297,0.0
0.06989891170250316,-0.018770637365655582,0.19745003550649112,0.0
0.06989462016756774,-0.018762054295784744,0.1974959012861134,0.0
0.06989596127223506,-0.018939616553737708,0.19755061835654,0.0
0.06987235783009026,-0.018981727240291506,0.1975181636235909,0.0
0.06988228200462841,-0.018799068784602732,0.19749429196051263,0.0
0.0698838913302292,-0.018740060179240722,0.19756295651947933,0.0
0.06989944814437009,-0.01891654955345983,0.19757985443828754,0.0
0.0698919379582331,-0.018976362821622232,0.19752889246092944,0.0
0.06989113329543271,-0.0188865088089119,0.19749026864651067,0.0
0.06989435194663428,-0.018710555876559717,0.19749938815824844,0.0
0.0698860370976969,-0.01885968671556553,0.19752808779812905,0.0
0.06987101672542294,-0.019006671787103628,0.19751467675145587,0.0
0.06987906335342685,-0.01892808305359877,0.19750663012345196,0.0
0.06988523243489651,-0.018811675168475525,0.197587632845358,0.0
0.06989622949316852,-0.018851103645694693,0.19758924217095877,0.0
0.06987933157436031,-0.01903805363631888,0.19758200020575525,0.0
0.06988415955116266,-0.01894417630960659,0.1976348397296476,0.0
0.06988362310929573,-0.01875508055151469,0.19761955113644017,0.0
0.06990695833050707,-0.01880121455207044,0.19760882229910162,0.0
0.06990239857463819,-0.018991919635763126,0.19761204095030319,0.0
0.06990266679557165,-0.018966975088951003,0.19763805838084916,0.0
0.06988067267902763,-0.018855663401563576,0.19760318965949888,0.0
0.0698868417604973,-0.018873097762238715,0.19766193004392743,0.0
0.0698956930513016,-0.019051464682992063,0.19768097373020335,0.0
0.0699163460631783,-0.01906514395059871,0.19765093298565542,0.0
0.06991956471437986,-0.01892379151866335,0.1976680991253971,0.0
0.06990561722583975,-0.018857809169031285,0.19767641397433447,0.0
0.06992117403998065,-0.019045563822455862,0.19768016906740296,0.0
0.06991124986544249,-0.01906353462499793,0.197657638508992,0.0
0.06991527317944445,-0.0189433716468062,0.19763939948551648,0.0
0.06991607784224484,-0.018842520575823855,0.1976718542184656,0.0
0.06990025280717048,-0.019039394740986197,0.1976125773921701,0.0
0.06990347145837204,-0.01907533634607033,0.19760560364790006,0.0
0.06992278336558143,-0.018940957658405026,0.19766997667193134,0.0
0.06991393207477713,-0.018821867563947152,0.19764234991578458,0.0
0.06990883587704132,-0.019007744670837483,0.19764342279951844,0.0
0.06990132569090433,-0.019085260520608487,0.19762840242724447,0.0
0.06990561722583975,-0.01899594294976508,0.19762732954351062,0.0
0.06990937231890824,-0.018817039587144806,0.19763966770644995,0.0
0.06991741894691215,-0.018914672006925586,0.19765307875312313,0.0
0.06991580962131137,-0.019049318915524353,0.19763323040404682,0.0
0.06993163465638573,-0.01898494589149307,0.1975978252408296,0.0
0.06992331980744836,-0.018823476889547934,0.19755222768214079,0.0
0.06990776299330746,-0.01892164575119564,0.19758200020575525,0.0
0.06991285919104327,-0.019093575369545864,0.1976310846365791,0.0
0.06991393207477713,-0.019064607508731783,0.1976023849966985,0.0
0.06992573379584953,-0.018851908308495084,0.19762920709004486,0.0
0.0699251973539826,-0.018828573087283744,0.19762545199697637,0.0
0.0698978388187693,-0.01906353462499793,0.19762464733417598,0.0
0.06988764642329769,-0.019038590078185806,0.19767131777659866,0.0
0.06989381550476735,-0.018892141448514636,0.1976474461135204,0.0
0.06989327906290042,-0.01878646240072994,0.19761525960150475,0.0
0.06988737820236422,-0.019056829101661336,0.19765415163685698,0.0
0.06989998458623702,-0.01907238591580223,0.19767587753246754,0.0
0.06991393207477713,-0.018907430041722066,0.19766863556726402,0.0
0.06990937231890824,-0.018839570145555755,0.197657638508992,0.0
0.06991688250504523,-0.01898923742642849,0.19765790672992548,0.0
0.06991473673757752,-0.01906433928779832,0.1976340350668472,0.0
0.06991983293531333,-0.01891708599532676,0.1975978252408296,0.0
0.06988469599302959,-0.018813284494076307,0.1975830730894891,0.0
0.06989998458623702,-0.01900533068243631,0.1975860235197572,0.0
0.06990642188864014,-0.019135149614232735,0.1975771722289529,0.0
0.06990400790023897,-0.01904610026432279,0.19759407014776112,0.0
0.0698897921907654,-0.018942835204939272,0.19759594769429537,0.0
0.0699104452026421,-0.019006671787103628,0.1976525423112562,0.0
0.06991715072597869,-0.01906138885753022,0.19766756268353017,0.0
0.06990266679557165,-0.01903081167111536,0.19761472315963782,0.0
0.06989810703970277,-0.01887202487850486,0.19758200020575525,0.0
0.06991446851664405,-0.0188953600997162,0.19758253664762218,0.0
0.06992358802838182,-0.019032152775782678,0.19756456584508011,0.0
0.06990776299330746,-0.01902276504311145,0.19752540558879442,0.0
0.06991956471437986,-0.018834473947819945,0.19750877589091967,0.0
0.0699133956329102,-0.018831523517551844,0.19746022790196274,0.0
0.06991420029571059,-0.01908955205554391,0.1974811491347729,0.0
0.06992197870278104,-0.01909116138114469,0.19749911993731498,0.0
0.06992761134238377,-0.01894766318174162,0.1974752482742367,0.0
0.06992868422611763,-0.018903674948653575,0.1974900004255772,0.0
0.06992546557491607,-0.019100280892882456,0.19753425687959872,0.0
0.06990964053984171,-0.019100817334749384,0.19749241441397838,0.0
0.06992600201678299,-0.018960537786547875,0.1974739071695694,0.0
0.0699007892490374,-0.018920572867461787,0.19747176140210168,0.0
0.06992466091211567,-0.019109132183686758,0.19751950472825822,0.0
0.06992251514464796,-0.01913327206769849,0.19750072926291576,0.0
0.06992144226091411,-0.019006940008037092,0.1974760529370371,0.0
0.06990964053984171,-0.018857004506230894,0.19748946398371028,0.0
0.06990883587704132,-0.019009353996438265,0.1974900004255772,0.0
0.06988201378369495,-0.019118519916357987,0.1975004610419823,0.0
0.06989649771410199,-0.01902061927564374,0.19751118987932084,0.0
0.06990132569090433,-0.01883340106408609,0.19750904411185313,0.0
0.06991527317944445,-0.018926205507064524,0.1975219187166594,0.0
0.06989408372570081,-0.019119324579158378,0.19741945832007626,0.0
0.06992466091211567,-0.019046368485256253,0.1975409624029353,0.0
0.06992653845864992,-0.01886317358770056,0.19753908485640106,0.0
0.06991795538877908,-0.018894018995048882,0.19751172632118777,0.0
0.06990347145837204,-0.01906863082273374,0.19748302668130716,0.0
0.06991366385384366,-0.01906219352033061,0.19746237366943045,0.0
0.06992948888891802,-0.0188953600997162,0.19744842618089034,0.0
0.06993807195878886,-0.0188953600997162,0.19748061269290598,0.0
0.06993941306345618,-0.019062998183131,0.19749724239078073,0.0
0.06992948888891802,-0.01905790198539519,0.19744708507622302,0.0
0.06992573379584953,-0.018915476669725977,0.197395586656998,0.0
0.06993458508665383,-0.018895091878782737,0.19744762151808995,0.0
0.06992600201678299,-0.019075872787937258,0.1974591550182289,0.0
0.06991661428411176,-0.01907828677633843,0.1974503037274246,0.0
0.06992036937718026,-0.018994870066031226,0.19743367402954984,0.0
0.06993458508665383,-0.018843861680491174,0.19744681685528956,0.0
0.0699348533075873,-0.018972071286686813,0.19743152826208213,0.0
0.06991178630730942,-0.019069971927401057,0.19736795990085124,0.0
0.06989462016756774,-0.018988432763628098,0.19735025731924263,0.0
0.06990534900490629,-0.018828036645416817,0.19736420480778274,0.0
0.06993163465638573,-0.018921377530262178,0.19741007058740503,0.0
0.06992734312145031,-0.018993528961363908,0.19736849634271816,0.0
0.06990481256303936,-0.018962683554015584,0.1973652776915166,0.0
0.0698956930513016,-0.018791826819399213,0.19737251965672012,0.0
0.06991768716784562,-0.018841715913023464,0.19737895695912325,0.0
0.06991285919104327,-0.019042076950320834,0.19735508529604498,0.0
0.06992278336558143,-0.018996479391632008,0.1973513302029765,0.0
0.06992948888891802,-0.018813820935943235,0.19733979670283755,0.0
0.06993673085412154,-0.018857004506230894,0.19734730688897453,0.0
0.06991902827251294,-0.019078823218205358,0.19729393092321526,0.0
0.06991151808637595,-0.019047173148056644,0.19726818171360275,0.0
0.06994129060999042,-0.018794240807800386,0.19730734196988844,0.0
0.06992492913304914,-0.018822672226747543,0.19731780258629353,0.0
0.06989757059783584,-0.01903885829911927,0.1973084148536223,0.0
0.06989891170250316,-0.01903510320605078,0.19727113214387085,0.0
0.06991259097010981,-0.018908234704522457,0.19729232159761448,0.0
0.0699163460631783,-0.018861564262099777,0.1973261174352309,0.0
0.06991205452824288,-0.019031348112982287,0.19729098049294716,0.0
0.0698897921907654,-0.019097062241680892,0.19722526636424856,0.0
0.0698919379582331,-0.01900103914750089,0.19720541801517225,0.0
0.06991983293531333,-0.01885754094809782,0.1972566482134638,0.0
0.06990642188864014,-0.01902276504311145,0.1972131964222427,0.0
0.0698897921907654,-0.019093575369545864,0.1971748408287574,0.0
0.0698986434815697,-0.018979581472823796,0.19715123738661258,0.0
0.06987262605102372,-0.018859418494632067,0.19713889922367325,0.0
0.06989408372570081,-0.01898360478682575,0.19715660180528186,0.0
0.06988952396983193,-0.01909464825327972,0.19711851443273,0.0
0.0699104452026421,-0.01901123154297251,0.1971201237583308,0.0
0.06993619441225461,-0.01882401333141486,0.19715096916567912,0.0
0.06992573379584953,-0.01889965163465162,0.19715096916567912,0.0
0.06991768716784562,-0.019046636706189717,0.1971016165139218,0.0
0.06989730237690238,-0.01902571547337955,0.19711744154899616,0.0
0.06989006041169886,-0.01882615909888257,0.19714238609580828,0.0
0.06991259097010981,-0.0188296459710176,0.19712119664206465,0.0
0.06991285919104327,-0.019041540508453907,0.19709973896738756,0.0
0.06991956471437986,-0.019038590078185806,0.19714050854927403,0.0
0.06991017698170864,-0.01888302193677687,0.19713648523527208,0.0
0.069907494772374,-0.018867196901702514,0.19707989061831124,0.0
0.06991285919104327,-0.01907667745073765,0.19713058437473588,0.0
0.0698986434815697,-0.019044222717788543,0.19713138903753627,0.0
0.06989381550476735,-0.01891359912319173,0.19711315001406074,0.0
0.06990373967930551,-0.0188296459710176,0.19715579714248146,0.0
0.06991554140037791,-0.018990310310162344,0.1972013947011703,0.0
0.06991902827251294,-0.019016059519774857,0.1971938845150333,0.0
0.06991956471437986,-0.018953027600410892,0.19717001285195504,0.0
0.06991741894691215,-0.01886102782023285,0.19715901579368303,0.0
0.06990642188864014,-0.01901042688017212,0.19716277088675152,0.0
0.06990722655144053,-0.01910779107901944,0.19710939492099225,0.0
0.06991554140037791,-0.01898870098456156,0.19716491665421923,0.0
0.06992761134238377,-0.018824281552348325,0.19717269506128968,0.0
0.06993136643545227,-0.018924059739596814,0.19711395467686113,0.0
0.0699251973539826,-0.01909116138114469,0.19717564549155778,0.0
0.06992331980744836,-0.019013109089506756,0.197192543410366,0.0
0.06993217109825266,-0.01886478291330134,0.19719200696849906,0.0
0.06993968128438964,-0.01889750586718391,0.19721990194557928,0.0
0.06991151808637595,-0.01907319057860262,0.19714935984007834,0.0
0.06991473673757752,-0.01901981461284335,0.1971673306426204,0.0
0.06992197870278104,-0.018808188296340497,0.19717832770089241,0.0
0.06990937231890824,-0.01892003642559486,0.19718825187543057,0.0
0.06992278336558143,-0.01909250248581201,0.19723036256198437,0.0
0.06991902827251294,-0.019101621997549775,0.19718020524742666,0.0
0.0699192964934464,-0.018922450413996032,0.19720380868957146,0.0
0.06991151808637595,-0.01887792573904106,0.19720702734077303,0.0
0.06990481256303936,-0.019111009730221003,0.19715901579368303,0.0
0.06990615366770668,-0.01910564531155173,0.19712790216540124,0.0
0.06989730237690238,-0.0189463220770743,0.19710778559539147,0.0
0.06989166973729964,-0.01888865457637961,0.1971024211767222,0.0
0.06989917992343662,-0.01904905069459089,0.19709893430458716,0.0
0.06990320323743858,-0.019149633544639773,0.19712200130486504,0.0
0.06991420029571059,-0.018985214112426534,0.19714694585167716,0.0
0.06988710998143076,-0.01886102782023285,0.197067016013505,0.0
0.0698830866674288,-0.01907238591580223,0.1970809635020451,0.0
0.06988818286516461,-0.019161971707579103,0.19710590804885722,0.0
0.06988845108609808,-0.019082310090340386,0.197078013071777,0.0
0.06988120912089456,-0.018905284274254357,0.19707694018804314,0.0
0.06988576887676344,-0.019067826159933347,0.19708123172297856,0.0
0.0698927426210335,-0.019183161161322734,0.19707479442057543,0.0
0.06990373967930551,-0.01908043254380614,0.19705816472270068,0.0
0.06989998458623702,-0.018923255076796423,0.1970418032457594,0.0
0.06992868422611763,-0.01901713240350871,0.1971163686652623,0.0
0.06989917992343662,-0.019211860801203347,0.19704958165282985,0.0
0.06990132569090433,-0.019126566544361897,0.19703348839682203,0.0
0.06990937231890824,-0.01895866024001363,0.19702275955948348,0.0
0.06993673085412154,-0.01892298685586296,0.19704153502482594,0.0
0.06992653845864992,-0.019157948393577148,0.19703617060615666,0.0
0.06992144226091411,-0.019203545952265973,0.19702275955948348,0.0
0.06992600201678299,-0.019042076950320834,0.19704421723416057,0.0
0.06992627023771646,-0.01896161067028173,0.1971024211767222,0.0
0.06992734312145031,-0.019109132183686758,0.19709008301378286,0.0
0.06991715072597869,-0.019102158439416702,0.19703134262935432,0.0
0.06992492913304914,-0.018948736065475473,0.19705467785056566,0.0
0.06989944814437009,-0.018899919855585083,0.19705896938550108,0.0
0.06989247440010003,-0.01907319057860262,0.1970699664437731,0.0
0.0699015939118378,-0.019095721137013574,0.19709383810685135,0.0
0.06987584470222528,-0.01898575055429346,0.19708659614164784,0.0
0.06987584470222528,-0.018799873447403123,0.1971067127116576,0.0
0.06988523243489651,-0.018953027600410892,0.19707533086244236,0.0
0.06987530826035836,-0.019034298543250387,0.19707023466470655,0.0
0.06987584470222528,-0.018909039367322848,0.1970847185951136,0.0
0.06986699341142098,-0.018750520795645806,0.19705816472270068,0.0
0.06987879513249338,-0.018928619495465697,0.1970573600599003,0.0
0.06987557648129182,-0.01903885829911927,0.19706674779257152,0.0
0.06987182138822333,-0.01894498097240698,0.19706138337390225,0.0
0.06987691758595914,-0.018770637365655582,0.19704743588536214,0.0
0.06988576887676344,-0.018902065623052793,0.1970367070480236,0.0
0.06988710998143076,-0.01901766884537564,0.19703268373402164,0.0
0.06988040445809417,-0.018988164542694634,0.19698038065199622,0.0
0.06988657353956383,-0.018881144390242625,0.19700505697787488,0.0
0.06990481256303936,-0.01885459051782972,0.1970152493733465,0.0
0.06991446851664405,-0.019007744670837483,0.19695436322145024,0.0
0.06987530826035836,-0.019057633764461727,0.19688650332528393,0.0
0.06987530826035836,-0.018884899483311117,0.19701390826867918,0.0
0.06987208960915679,-0.01885298119222894,0.19699191415213516,0.0
0.06986592052768713,-0.01902276504311145,0.19696589672158918,0.0
0.06985975144621746,-0.01903671253165156,0.19693800174450896,0.0
0.06986109255088478,-0.018859418494632067,0.19689964615102365,0.0
0.06987048028355601,-0.018826963761682962,0.1969406839538436,0.0
0.06988120912089456,-0.019012840868573293,0.19696294629132108,0.0
0.06989462016756774,-0.019038590078185806,0.19694470726784555,0.0
0.06986994384168908,-0.01893827544907039,0.1968999143719571,0.0
0.06987074850448947,-0.018813016273142844,0.19688703976715086,0.0
0.06986887095795523,-0.0189551733678786,0.19688864909275164,0.0
0.06988040445809417,-0.019038590078185806,0.19693156444210583,0.0
0.06987316249289065,-0.018979581472823796,0.19690930210462834,0.0
0.06988147734182802,-0.018857809169031285,0.19690930210462834,0.0
0.06989113329543271,-0.018988969205495025,0.19692754112810387,0.0
0.06987772224875953,-0.019083651195007705,0.19694256150037784,0.0
0.0698653840858202,-0.01901337731044022,0.19692029916290035,0.0
0.06986162899275171,-0.01885459051782972,0.19690125547662443,0.0
0.06986377476021942,-0.01891654955345983,0.19692941867463812,0.0
0.06986431120208635,-0.01908686984620927,0.1969672378262565,0.0
0.06985519169034858,-0.019066216834332565,0.19696294629132108,0.0
0.06985599635314897,-0.01893398391413497,0.1969575818726518,0.0
0.06986297009741903,-0.018956246251612456,0.1969347830933074,0.0
0.06988576887676344,-0.019107522858085976,0.19695945941918605,0.0
0.06987745402782607,-0.019109668625553685,0.19691949450009996,0.0
0.06987986801622724,-0.01891654955345983,0.1968956228370217,0.0
0.06987235783009026,-0.01891279446039134,0.19688838087181817,0.0
0.06987986801622724,-0.019148828881839382,0.19694604837251287,0.0
0.06988630531863037,-0.019157680172643684,0.196904474127826,0.0
0.06988228200462841,-0.019008549333637874,0.1969200309419669,0.0
0.06988496421396305,-0.018923255076796423,0.19691573940703147,0.0
0.0699007892490374,-0.019108059299952903,0.19696401917505493,0.0
0.06988469599302959,-0.019152583974907874,0.196944975488779,0.0
0.06987155316728987,-0.01901123154297251,0.19689508639515477,0.0
0.06987396715569104,-0.018904479611453966,0.19686263166220566,0.0
0.06988067267902763,-0.01909840334634821,0.1968808706856812,0.0
0.06989381550476735,-0.01914936532370631,0.19693049155837197,0.0
0.06988469599302959,-0.019021155717510667,0.19690635167436024,0.0
0.06988764642329769,-0.01891279446039134,0.19692620002343655,0.0
0.06989462016756774,-0.019022496822177985,0.19692324959316845,0.0
0.06989676593503545,-0.01914856066090592,0.19687362872047767,0.0
0.06989542483036813,-0.019093843590479328,0.19683929644099432,0.0
0.06990481256303936,-0.01891064869292363,0.1968535121504679,0.0
0.06990561722583975,-0.019010695101105583,0.1968631681040726,0.0
0.06988871930703154,-0.019178064963586924,0.19684492908059706,0.0
0.06988040445809417,-0.01913327206769849,0.19682132563845225,0.0
0.06988281844649534,-0.01896026956561441,0.19681113324298063,0.0
0.0698868417604973,-0.01897689926348916,0.19680281839404326,0.0
0.0698919379582331,-0.01917135944025033,0.1967781420681646,0.0
0.06990052102810394,-0.01913193096303117,0.19678645691710198,0.0
0.06990722655144053,-0.018918158879060613,0.19680094084750901,0.0
0.0698927426210335,-0.018957855577213238,0.1967945035451059,0.0
0.06989113329543271,-0.01921937098734033,0.1968202527547184,0.0
0.0698927426210335,-0.01916545857971413,0.19686075411567142,0.0
0.06990293501650512,-0.019035639647917706,0.1968122061267145,0.0
0.06993029355171841,-0.01890474783238743,0.1967995997428417,0.0
0.0699133956329102,-0.019125761881561506,0.19677948317283192,0.0
0.06991017698170864,-0.019220443871074185,0.19681676588258337,0.0
0.06989247440010003,-0.019134613172365807,0.19680737814991214,0.0
0.06986726163235445,-0.018980386135624187,0.19679906330097477,0.0
0.06987745402782607,-0.019117178811690668,0.19685619435980253,0.0
0.0698801362371607,-0.019225003626943068,0.1968763109298123,0.0
0.0698830866674288,-0.019154729742375583,0.19683473668512544,0.0
0.06988040445809417,-0.01899513828696469,0.19677358231229572,0.0
0.06989757059783584,-0.019128444090896143,0.19682132563845225,0.0
0.06990776299330746,-0.019272746953099603,0.1968615587784718,0.0
0.06990186213277126,-0.019192012452127035,0.1968063052661783,0.0
0.06990588544677322,-0.019015254856974466,0.19678001961469885,0.0
0.06991527317944445,-0.01909679402074743,0.19679530820790628,0.0
0.06989113329543271,-0.0192461930806867,0.1967507835329513,0.0
0.06987369893475757,-0.019236268906148542,0.196712427939466,0.0
0.06988630531863037,-0.01897046196108603,0.19678940734737008,0.0
0.06988710998143076,-0.01900103914750089,0.1967928942195051,0.0
0.06987879513249338,-0.0191922806730605,0.19679611287070667,0.0
0.06987021206262255,-0.019161971707579103,0.19678860268456969,0.0
0.06988120912089456,-0.018981727240291506,0.19676794967269298,0.0
0.06986967562075562,-0.01896241533308212,0.19676607212615874,0.0
0.0698860370976969,-0.019187452696258153,0.1968556579179356,0.0
0.06989247440010003,-0.019206496382534074,0.19681274256858142,0.0
0.06987933157436031,-0.019122006788493014,0.19678136071936617,0.0
0.06989810703970277,-0.018956782693479383,0.1968033548359102,0.0
0.06988737820236422,-0.019177260300786533,0.19682266674311957,0.0
0.06988442777209612,-0.019248338848154408,0.19682561717338767,0.0
0.06988228200462841,-0.01912307967222687,0.1967907484520374,0.0
0.06985975144621746,-0.01903456676418385,0.19676231703309024,0.0
0.06986699341142098,-0.01919388999866128,0.19683366380139158,0.0
0.06984580395767735,-0.019273819836833458,0.19679262599857164,0.0
0.06985921500435054,-0.019189866684659326,0.19673334917227617,0.0
0.06986645696955406,-0.019041540508453907,0.196760439486556,0.0
0.06986565230675366,-0.019199790859197482,0.1967456873352155,0.0
0.06986726163235445,-0.019361259861142618,0.1967427369049474,0.0
0.06987638114409221,-0.01918584337065737,0.19680657348711175,0.0
0.06986162899275171,-0.019035371426984242,0.19680979213831332,0.0
0.06986216543461864,-0.01912254323035994,0.1968476112899317,0.0
0.06986297009741903,-0.019267114313496866,0.19683232269672427,0.0
0.06985787389968322,-0.019212397243070275,0.19677277764949533,0.0
0.06987316249289065,-0.01907024014833452,0.1968105968011137,0.0
0.06988040445809417,-0.019093038927678937,0.19683607778979276,0.0
0.06987182138822333,-0.01927542916243424,0.19685780368540332,0.0
0.06987396715569104,-0.019252630383089827,0.19683473668512544,0.0
0.0698771858068926,-0.01910644997435212,0.19680737814991214,0.0
0.06986967562075562,-0.01907748211353804,0.196778946730965,0.0
0.06987369893475757,-0.019242169766684743,0.19682669005712153,0.0
0.06985626457408244,-0.0192461930806867,0.19675105175388477,0.0
0.06986082432995132,-0.019121202125692623,0.19674166402121354,0.0
0.06986270187648556,-0.019047977810857035,0.1967655356842918,0.0
0.06984794972514506,-0.01927247873216614,0.19673442205601002,0.0
0.06986699341142098,-0.01922661295254385,0.1968299087083231,0.0
0.06987584470222528,-0.019113960160489104,0.1968232031849865,0.0
0.06986994384168908,-0.019014986636041002,0.19682159385938572,0.0
0.06986887095795523,-0.01917484631238536,0.1968401011037947,0.0
0.06985385058568126,-0.019316466965254183,0.19680737814991214,0.0
0.06986779807422137,-0.019196303987062454,0.19681301078951488,0.0
0.06988174556276149,-0.01897904503095687,0.19679772219630745,0.0
0.06988281844649534,-0.01914641489343821,0.1968143518941822,0.0
0.06987208960915679,-0.01931029788378452,0.19681676588258337,0.0
0.06985572813221551,-0.019248338848154408,0.19679477176603935,0.0
0.06982944248073607,-0.019056829101661336,0.19680281839404326,0.0
0.06984043953900808,-0.0191354178351662,0.19681032858018024,0.0
0.06983480689940534,-0.019331755558461613,0.19678511581243466,0.0
0.06983427045753841,-0.01931029788378452,0.19675024709108438,0.0
0.06984794972514506,-0.019105913532485194,0.1967435415677478,0.0
0.06985492346941512,-0.019112350834888322,0.1967435415677478,0.0
0.0698468768414112,-0.019303055918581,0.19669231136945622,0.0
0.0698321246900707,-0.01933524243059664,0.1967220838930707,0.0
0.0698262238295345,-0.019182624719455806,0.19676446280055795,0.0
0.06983480689940534,-0.019113423718622177,0.19676499924242488,0.0
0.06984526751581042,-0.01930091015111329,0.19680120906844248,0.0
0.06983078358540339,-0.019327732244459658,0.1967907484520374,0.0
0.06983024714353646,-0.01918423404505659,0.19677921495189846,0.0
0.06984285352740925,-0.019069703706467593,0.19677116832389455,0.0
0.06984634039954428,-0.019251825720289436,0.1967545386260198,0.0
0.06984419463207657,-0.019338461081798205,0.19679477176603935,0.0
0.06983561156220573,-0.01922527184787653,0.1968181069872507,0.0
0.06981898186433098,-0.019106181753418657,0.19684573374339745,0.0
0.06982756493420182,-0.01929152241844206,0.19688462577874968,0.0
0.06984446285301003,-0.01934248439580016,0.19686719141807454,0.0
0.06980691192232512,-0.019262822778561447,0.19679128489390432,0.0
0.06981093523632707,-0.019130053416496925,0.19690393768595907,0.0
0.0698262238295345,-0.019203545952265973,0.19691171609302952,0.0
0.0698173725387302,-0.019337924639931277,0.19684814773179862,0.0
0.06981629965499635,-0.019273551615899994,0.19682213030125265,0.0
0.06981603143406288,-0.01913112630023078,0.1967966493125736,0.0
0.06983453867847188,-0.019163581033179885,0.19682937226645617,0.0
0.06982461450393372,-0.01934328905860055,0.19682803116178885,0.0
0.06981361744566171,-0.019269796522831503,0.19684036932472818,0.0
0.06981013057352668,-0.019032152775782678,0.1967663403470922,0.0
0.0697967195268535,-0.01907828677633843,0.19678431114963427,0.0
0.06980127928272238,-0.019284012232305078,0.19681462011511566,0.0
0.06981469032939557,-0.01920327773133251,0.19684707484806477,0.0
0.0697870635732488,-0.019083114753140777,0.1968135472313818,0.0
0.06979859707338774,-0.01906728971806642,0.19677787384723114,0.0
0.06983373401567149,-0.019233050254946978,0.19676768145175952,0.0
0.06981764075966367,-0.019263627441361838,0.19674515089334857,0.0
0.06981603143406288,-0.01910564531155173,0.19672315677680455,0.0
0.06981683609686327,-0.019056560880727873,0.19675427040508633,0.0
0.06981683609686327,-0.01923170915027966,0.19673871359094544,0.0
0.0698232733992664,-0.01926657787162994,0.1966858740670531,0.0
0.06981817720153059,-0.01921132435933642,0.1967183288000022,0.0
0.06980905768979283,-0.019069703706467593,0.19674917420735052,0.0
0.06982756493420182,-0.019204350615066364,0.1967448826724151,0.0
0.06980288860832316,-0.019343557279534015,0.19671055039293175,0.0
0.06981066701539361,-0.01920193662666519,0.19670223554399438,0.0
0.06981683609686327,-0.019066216834332565,0.19669284781132315,0.0
0.0698240780620668,-0.01917404164958497,0.19668855627638773,0.0
0.06983239291100417,-0.019289108430040888,0.1966413493920981,0.0
0.06985572813221551,-0.01922446718507614,0.19665797908997287,0.0
0.06986511586488674,-0.01906353462499793,0.19672369321867147,0.0
0.06985385058568126,-0.019156070847042902,0.19669794400905896,0.0
0.06985921500435054,-0.01930386058138139,0.19677197298669494,0.0
0.06985733745781629,-0.01927247873216614,0.19674112757934661,0.0
0.06985519169034858,-0.01910993684648715,0.19670545419519594,0.0
0.06986377476021942,-0.019113423718622177,0.19671108683479868,0.0
0.06985519169034858,-0.019358041209941054,0.1967145737069337,0.0
0.069840975980875,-0.019356163663406808,0.19671055039293175,0.0
0.06984821794607853,-0.01916384925411335,0.19672557076520572,0.0
0.06985921500435054,-0.019076945671671112,0.19669928511372628,0.0
0.06984607217861082,-0.019310566104717982,0.196723424997738,0.0
0.06984419463207657,-0.01935187212847139,0.19677948317283192,0.0
0.06984580395767735,-0.019220443871074185,0.19676580390522527,0.0
0.069840975980875,-0.01908177364847346,0.19677841028909807,0.0
0.06983614800407266,-0.019263359220428374,0.1967877980217693,0.0
0.06983909843434076,-0.019323708930457702,0.19677492341696304,0.0
0.06982568738766758,-0.01924270620855167,0.19675212463761863,0.0
0.0698203229689983,-0.01908847917181005,0.19678538403336812,0.0
0.06983534334127227,-0.019169481893716086,0.19685082994113326,0.0
0.0698468768414112,-0.019259872348293346,0.19685807190633678,0.0
0.0698203229689983,-0.019218298103606476,0.19681274256858142,0.0
0.06980878946885936,-0.019074263462336476,0.196789943789237,0.0
0.06984419463207657,-0.019161435265712175,0.1969015236975579,0.0
0.06982354162019987,-0.019313516534986083,0.19687550626701192,0.0
0.06981173989912746,-0.01926443210416223,0.19686397276687298,0.0
0.0698026203873897,-0.019121202125692623,0.19684707484806477,0.0
0.06980664370139165,-0.019168140789048767,0.19685217104580058,0.0
0.06980047461992199,-0.019337924639931277,0.19683339558045812,0.0
0.06981898186433098,-0.019287499104440105,0.1968690689646088,0.0
0.06980342505019009,-0.01913112630023078,0.19684922061553248,0.0
0.0698026203873897,-0.01911664236982374,0.19689240418582013,0.0
0.06981710431779674,-0.019286962662573178,0.1968897219764855,0.0
0.06981683609686327,-0.019286694441639714,0.1968623634412722,0.0
0.0698026203873897,-0.019187452696258153,0.1968631681040726,0.0
0.06981281278286132,-0.019115301265156422,0.19690796099996102,0.0
0.06981173989912746,-0.01929876438364558,0.19689240418582013,0.0
0.0698085212479259,-0.01934248439580016,0.19687979780194734,0.0
0.06980422971299048,-0.01925075283655558,0.19686424098780644,0.0
0.06979457375938579,-0.019154193300508656,0.19688435755781622,0.0
0.06982783315513529,-0.019336315314330495,0.1968602176738045,0.0
0.06981415388752864,-0.01943689816437938,0.19684224687126242,0.0
0.06980127928272238,-0.019262554557627983,0.19691976272103343,0.0
0.06980422971299048,-0.019103767765017484,0.19692459069783577,0.0
0.06981629965499635,-0.019234927801481224,0.19688730798808432,0.0
0.06980771658512551,-0.019392105268490945,0.19689669572075555,0.0
0.06982059118993177,-0.019258531243626028,0.1969036694650256,0.0
0.06982836959700221,-0.019113960160489104,0.19689133130208628,0.0
0.06982944248073607,-0.019232245592146587,0.19690608345342678,0.0
0.06981281278286132,-0.019331219116594685,0.19689133130208628,0.0
0.0698144221084621,-0.019292058860308988,0.1969111796511626,0.0
0.06982515094580065,-0.019134344951432344,0.19693826996544242,0.0
0.06984017131807461,-0.01920837392906832,0.19693156444210583,0.0
0.06983132002727031,-0.019381912873019325,0.19688328467408236,0.0
0.06982193229459908,-0.019408198524498765,0.19686853252274186,0.0
0.069829978922603,-0.019191476010260108,0.19693853818637588,0.0
0.06983748910873998,-0.019226344731610386,0.19700291121040717,0.0
0.06983319757380456,-0.019441189699314798,0.19697287046585923,0.0
0.06982273695739948,-0.019424828222373514,0.19692164026756767,0.0
0.06983427045753841,-0.01922956338281195,0.19690125547662443,0.0
0.0698329293528711,-0.019167067905314913,0.1968556579179356,0.0
0.069829978922603,-0.019363137407676864,0.19680710992897868,0.0
0.06982085941086523,-0.019420000245571167,0.19689535461608823,0.0
0.06982890603886914,-0.01926818719723072,0.19693934284917627,0.0
0.06981978652713138,-0.01918369760318966,0.1969192262791665,0.0
0.06982676027140143,-0.019339802186465523,0.19697126114025845,0.0
0.06982541916673411,-0.019408198524498765,0.19695489966331717,0.0
0.06981361744566171,-0.01934248439580016,0.19690340124409214,0.0
0.06981764075966367,-0.019170018335583013,0.19693853818637588,0.0
0.06981469032939557,-0.01935053102380407,0.1969996925592056,0.0
0.06981013057352668,-0.01945942872279033,0.19700210654760678,0.0
0.06981227634099439,-0.01938003532648508,0.19698520862879856,0.0
0.06982434628300026,-0.01921776166173955,0.1969768937798612,0.0
0.06982434628300026,-0.0193060063488491,0.19700988495467722,0.0
0.06981495855032903,-0.019441726141181725,0.19697179758212538,0.0
0.06980530259672434,-0.019399347233694464,0.19695007168651482,0.0
0.06981415388752864,-0.019210251475602565,0.19694551193064594,0.0
0.06981817720153059,-0.01928562155790586,0.1969369288607751,0.0
0.06983373401567149,-0.0194618427111915,0.1969798442101293,0.0
0.06984419463207657,-0.01943555705971206,0.1970085438500099,0.0
0.06983722088780651,-0.019270064743764966,0.19691868983729957,0.0
0.06984151242274193,-0.019271942290299212,0.19695892297731912,0.0
0.0698476815042116,-0.019480349955600496,0.19707908595551085,0.0
0.06985921500435054,-0.019430192641042787,0.19703187907122124,0.0
0.06984312174834272,-0.019278916034569268,0.19701042139654415,0.0
0.06982756493420182,-0.01925370326682368,0.19699781501267136,0.0
0.0698211276317987,-0.01945728295532262,0.19697957598919583,0.0
0.06981361744566171,-0.019484105048668987,0.1969642873959884,0.0
0.06983775732967344,-0.019330682674727758,0.19695516788425063,0.0
0.06982220051553255,-0.019231977371213124,0.19693075977930544,0.0
0.06984553573674389,-0.019416781594369603,0.19699996078013907,0.0
0.06983078358540339,-0.019516828002551556,0.19696831070999035,0.0
0.06982273695739948,-0.019427242210774687,0.19697287046585923,0.0
0.06983427045753841,-0.019204618835999828,0.19700157010573985,0.0
0.06982890603886914,-0.01937198869848117,0.19699432814053633,0.0
0.06982059118993177,-0.01950046652561027,0.19698011243106275,0.0
0.0698321246900707,-0.01939103238475709,0.1970144447105461,0.0
0.06982890603886914,-0.019223930743209213,0.1970241006641508,0.0
0.06985975144621746,-0.019333901325929322,0.19710912670005878,0.0
0.06983400223660495,-0.0195549153751034,0.19706352914136996,0.0
0.06983775732967344,-0.019500734746543735,0.1970536049668318,0.0
0.069840975980875,-0.01929152241844206,0.19699942433827214,0.0
0.06984312174834272,-0.019378426000884297,0.19698064887292968,0.0
0.069859483225284,-0.019484909711469378,0.19702866042001968,0.0
0.06985572813221551,-0.01943984859464748,0.1969945963614698,0.0
0.06985170481821355,-0.019292058860308988,0.1970077391872095,0.0
0.0698565327950159,-0.019290449534708206,0.19704529011789443,0.0
0.06984070775994154,-0.01950770849081379,0.19704797232722907,0.0
0.06984043953900808,-0.019528361502690494,0.19706138337390225,0.0
0.06984741328327813,-0.01935053102380407,0.1970426079085598,0.0
0.06985841034155015,-0.01925289860402329,0.19711449111872806,0.0
0.06984902260887892,-0.01945808761812301,0.19717591371249124,0.0
0.06983346579473802,-0.01951495045601731,0.19712709750260085,0.0
0.06982085941086523,-0.019433143071310888,0.19713138903753627,0.0
0.06982863781793568,-0.019302787697647535,0.19719039764289828,0.0
0.06983614800407266,-0.019504489839612227,0.1971651848751527,0.0
0.06984419463207657,-0.019527556839890103,0.19719227518943253,0.0
0.06982810137606875,-0.019446554117984072,0.19716893996822119,0.0
0.06982890603886914,-0.019290181313774742,0.1971651848751527,0.0
0.06982676027140143,-0.019386472628888207,0.19718825187543057,0.0
0.06982756493420182,-0.019507440269880327,0.19719066586383174,0.0
0.069811471678194,-0.019466670687993848,0.1971909340847652,0.0
0.06980422971299048,-0.01930386058138139,0.19717859592182588,0.0
0.06983373401567149,-0.019368233605412677,0.19716411199141884,0.0
0.06985116837634663,-0.019536408130694405,0.19722285237584739,0.0
0.0698468768414112,-0.019479008850933177,0.19725879398093152,0.0
0.06981978652713138,-0.019350262802870607,0.19719066586383174,0.0
0.0698417806436754,-0.01935187212847139,0.19723438587598632,0.0
0.06983024714353646,-0.019512536467616137,0.19719495739876716,0.0
0.06979537842218618,-0.019526215735222785,0.19713514413060476,0.0
0.06979645130592003,-0.019363942070477258,0.19719147052663213,0.0
0.06981013057352668,-0.019302251255780608,0.19720246758490415,0.0
0.06981764075966367,-0.019471766885729658,0.1971547242587476,0.0
0.0698203229689983,-0.01949590676974139,0.19715794290994917,0.0
0.06982541916673411,-0.019365283175144576,0.19714828695634448,0.0
0.06982595560860104,-0.01930091015111329,0.19716196622395113,0.0
0.06981495855032903,-0.019519778432819657,0.19711744154899616,0.0
0.06982005474806484,-0.01955357427043608,0.19716277088675152,0.0
0.06982246873646601,-0.019434484175978206,0.19717752303809202,0.0
0.06982354162019987,-0.019345703047001724,0.19716867174728772,0.0
0.06984821794607853,-0.019531848374825522,0.1971563335843484,0.0
0.0698329293528711,-0.019607754898995744,0.1971297797119355,0.0
0.06982541916673411,-0.01949241989760636,0.19712361063046582,0.0
0.06982488272486718,-0.01942026846650463,0.1971474822935441,0.0
0.06983963487620769,-0.019554647154169935,0.19722902145731705,0.0
0.06985385058568126,-0.0195637666659077,0.19723653164345403,0.0
0.06984446285301003,-0.019467743571727703,0.19722660746891588,0.0
0.06982568738766758,-0.019288840209107424,0.19726013508559884,0.0
0.06983453867847188,-0.01935777298900759,0.19727166858573777,0.0
0.06982246873646601,-0.01947042578106234,0.197240554957456,0.0
0.06981173989912746,-0.019430192641042787,0.19728668895801174,0.0
0.06981066701539361,-0.019262018115761056,0.19735669462164576,0.0
0.0698321246900707,-0.01933014623286083,0.19736715523805085,0.0
0.0698388302134073,-0.019567521758976192,0.19737761585445593,0.0
0.06983561156220573,-0.019534798805093623,0.19738405315685906,0.0
0.06983024714353646,-0.019373866245015414,0.1973778840753894,0.0
0.0698240780620668,-0.01933524243059664,0.19738727180806062,0.0
0.06984017131807461,-0.019515486897884238,0.19738539426152638,0.0
0.0698439264111431,-0.019498588979076026,0.1973910269011291,0.0
0.0698329293528711,-0.01937279336128156,0.19738914935459487,0.0
0.06982139585273216,-0.019292595302175915,0.19738485781965945,0.0
0.0698203229689983,-0.019470962222929267,0.1973749336451213,0.0
0.06980422971299048,-0.01949161523480597,0.19736420480778274,0.0
0.06980959413165976,-0.019397201466226754,0.19733255473763403,0.0
0.06983561156220573,-0.01927542916243424,0.19732719031896476,0.0
0.06985411880661473,-0.019457014734389155,0.19742348163407822,0.0
0.06984285352740925,-0.019536944572561332,0.19737466542418783,0.0
0.06984875438794545,-0.019445481234250217,0.1973526713076438,0.0
0.06985814212061668,-0.01925423970869061,0.1973792251800567,0.0
0.06985706923688283,-0.01938593618702128,0.1973564264007123,0.0
0.06982756493420182,-0.019535067026027086,0.19738405315685906,0.0
0.06983641622500612,-0.019443871908649435,0.19738485781965945,0.0
0.06981013057352668,-0.019321831383923457,0.19737466542418783,0.0
0.06982220051553255,-0.01941731803623653,0.19743152826208213,0.0
0.06982836959700221,-0.019524874630555467,0.19743662445981794,0.0
0.06982729671326836,-0.019486787258003624,0.19741087525020543,0.0
0.06982488272486718,-0.0193148576396534,0.19737734763352247,0.0
0.06982649205046797,-0.019365014954211113,0.1973918315639295,0.0
0.06982836959700221,-0.01951790088628541,0.19740872948273772,0.0
0.06983239291100417,-0.019481959281201278,0.19738780824992755,0.0
0.06983427045753841,-0.019307079232582954,0.19738619892432677,0.0
0.06982300517833294,-0.019299032604579044,0.19737064211018587,0.0
0.06981361744566171,-0.019481691060267814,0.19734301535403911,0.0
0.06980101106178892,-0.01946237915305843,0.19732155767936202,0.0
0.06981200812006093,-0.019296886837111334,0.19731163350482386,0.0
0.06980691192232512,-0.01924699774348709,0.197299563562818,0.0
0.0698026203873897,-0.01952219242122083,0.1973778840753894,0.0
0.06981495855032903,-0.019444408350516362,0.1973939773313972,0.0
0.06981898186433098,-0.019323708930457702,0.19742026298287665,0.0
0.06982890603886914,-0.019228490499078096,0.19746398299503123,0.0
0.06981603143406288,-0.019416245152502676,0.19740416972686883,0.0
0.06980020639898853,-0.019495102106940998,0.19738190738939135,0.0
0.06980718014325858,-0.0194020294430291,0.19740872948273772,0.0
0.06980530259672434,-0.019277306708968486,0.19741275279673967,0.0
0.06981361744566171,-0.019401493001162173,0.19745995968102928,0.0
0.06981898186433098,-0.019514682235083847,0.19747176140210168,0.0
0.06982971070166953,-0.019428583315442005,0.19745566814609386,0.0
0.06983346579473802,-0.019276770267101558,0.19745513170422693,0.0
0.06984902260887892,-0.01934623948886865,0.19747632115797056,0.0
0.06982166407366562,-0.01950261229307798,0.19744520752968878,0.0
0.06982085941086523,-0.019424828222373514,0.1974449393087553,0.0
0.06981281278286132,-0.0192491435109548,0.19746076434382967,0.0
0.0698329293528711,-0.019256921918025246,0.19745405882049308,0.0
0.06983373401567149,-0.01943904393184709,0.19742187230847744,0.0
0.06980691192232512,-0.01946398847865921,0.1973778840753894,0.0
0.06979993817805506,-0.01931914917458882,0.197340064923771,0.0
0.06981495855032903,-0.019329878011927367,0.19734113780750487,0.0
0.06984151242274193,-0.0194500409901191,0.19741436212234045,0.0
0.06983561156220573,-0.019409003187299156,0.19736500947058314,0.0
0.06981871364339752,-0.019296350395244407,0.19734408823777297,0.0
0.06982166407366562,-0.019247534185354017,0.19735374419137766,0.0
0.06982488272486718,-0.01941946380370424,0.1973269220980313,0.0
0.06982944248073607,-0.019481154618400887,0.1973703738892524,0.0
0.06982139585273216,-0.01936206452394301,0.19734784333084146,0.0
0.06981817720153059,-0.01923036804561234,0.19733362762136789,0.0
0.06984285352740925,-0.01938808195448899,0.19735454885417805,0.0
0.06985250948101394,-0.019460769827457647,0.19735159842390995,0.0
0.06983078358540339,-0.0194020294430291,0.19733255473763403,0.0
0.06982890603886914,-0.019251557499355972,0.1974006828547338,0.0
0.06984365819020964,-0.019392641710357872,0.19742696850621325,0.0
0.06985036371354623,-0.019443871908649435,0.19744735329715649,0.0
0.06983829377154037,-0.01936689250074536,0.19741731255260855,0.0
0.0698388302134073,-0.019186916254391225,0.1974103388083385,0.0
0.06985197303914702,-0.019264700325095693,0.19743850200635218,0.0
0.0698358797831392,-0.019459696943723792,0.19742482273874554,0.0
0.06983641622500612,-0.019425096443306977,0.19743716090168487,0.0
0.06981951830619791,-0.019263359220428374,0.19745969146009582,0.0
0.06981415388752864,-0.01930976144191759,0.19748222201850676,0.0
0.06981200812006093,-0.01948946946733826,0.1974516448320919,0.0
0.0698055708176578,-0.019515218676950774,0.19737895695912325,0.0
0.06981522677126249,-0.01933524243059664,0.19750287503038347,0.0
0.0698203229689983,-0.0193148576396534,0.19752165049572593,0.0
0.0698329293528711,-0.01942885153637547,0.1974967059489138,0.0
0.06982944248073607,-0.019443067245849044,0.19744601219248917,0.0
0.06982595560860104,-0.019337119977130886,0.1974650558787651,0.0
0.06984312174834272,-0.019235732464281615,0.1974503037274246,0.0
0.06986323831835249,-0.019418390919970385,0.1974478897390234,0.0
0.06983051536446992,-0.019539358560962505,0.19742187230847744,0.0
0.06982890603886914,-0.01941570871063575,0.19739960997099995,0.0
0.06983963487620769,-0.01928776732537357,0.1974103388083385,0.0
0.0698417806436754,-0.019488128362670942,0.19740792481993732,0.0
0.06983346579473802,-0.019544991200565243,0.1974478897390234,0.0
0.06983078358540339,-0.019419732024637704,0.19745271771582576,0.0
0.06982676027140143,-0.019281061802036977,0.19747578471610364,0.0
0.06984151242274193,-0.01944923632731871,0.1974988517163815,0.0
0.06983078358540339,-0.019592466305788314,0.19747498005330325,0.0
0.06982220051553255,-0.019524874630555467,0.1974798080301056,0.0
0.06982220051553255,-0.019342752616733624,0.19749134153024453,0.0
0.06983239291100417,-0.01946747535079424,0.19750743478625235,0.0
0.06981951830619791,-0.019609900666463453,0.19750743478625235,0.0
0.06980771658512551,-0.01956591243337541,0.19749134153024453,0.0
0.06981898186433098,-0.019317271628054574,0.1974900004255772,0.0
0.06980798480605897,-0.019405784536097592,0.1974975106117142,0.0
0.06981898186433098,-0.019568326421776583,0.19760506720603313,0.0
0.06982354162019987,-0.019526752177089712,0.19759004683375916,0.0
0.06981549499219596,-0.019384863303287425,0.19755678743800967,0.0
0.06982836959700221,-0.019355895442473344,0.19755839676361045,0.0
0.06981871364339752,-0.019561889119373455,0.19755517811240889,0.0
0.06981817720153059,-0.019550087398301053,0.1975683209381486,0.0
0.06982863781793568,-0.019392105268490945,0.19754310817040302,0.0
0.06981039879446015,-0.019342216174866696,0.19755625099614274,0.0
0.06982085941086523,-0.019531848374825522,0.1975956794733619,0.0
0.06981495855032903,-0.01959809894539105,0.19756644339161436,0.0
0.06981817720153059,-0.019479008850933177,0.19755088657747347,0.0
0.06981898186433098,-0.019356163663406808,0.19753398865866525,0.0
0.06981683609686327,-0.019568326421776583,0.19760131211296464,0.0
0.06980744836419205,-0.01964155073661217,0.19759433836869458,0.0
0.06981388566659517,-0.01950904959548111,0.19759541125242844,0.0
0.0698270284923349,-0.0193540178959391,0.19759460658962805,0.0
0.06982944248073607,-0.019549550956434125,0.19759809346176307,0.0
0.06984312174834272,-0.01968151565569826,0.19758709640349106,0.0
0.06982166407366562,-0.019599976491925297,0.19756778449628168,0.0
0.06980288860832316,-0.019429924420109324,0.19755222768214079,0.0
0.0698240780620668,-0.019525411072422394,0.19754820436813883,0.0
0.06984017131807461,-0.0196989500163734,0.19750904411185313,0.0
0.0698417806436754,-0.019710215295578874,0.19757931799642062,0.0
0.06984499929487696,-0.019459160501856865,0.19762116046204095,0.0
0.06984902260887892,-0.01947418087413083,0.19764395924138536,0.0
0.06985090015541316,-0.01966408129502312,0.19763430328778067,0.0
0.0698270284923349,-0.019697340690772617,0.19761606426430514,0.0
0.06981764075966367,-0.019510927142015355,0.19759541125242844,0.0
0.06981469032939557,-0.019491883455739434,0.1976495918809881,0.0
0.06982139585273216,-0.01967507835329513,0.1976533469740566,0.0
0.06981576321312942,-0.019652816015817646,0.19761579604337168,0.0
0.06981710431779674,-0.019496979653475244,0.19760399432229928,0.0
0.0698203229689983,-0.0193961285824929,0.1976066765316339,0.0
0.0698262238295345,-0.019578787038181666,0.19761552782243821,0.0
0.0698240780620668,-0.019640209631944853,0.1976125773921701,0.0
0.0698173725387302,-0.019525679293355858,0.1976163324852386,0.0
0.06982139585273216,-0.019384058640487034,0.19762411089230905,0.0
0.06983641622500612,-0.019545795863365634,0.19762867064817793,0.0
0.06983051536446992,-0.019638868527277534,0.19760560364790006,0.0
0.06981951830619791,-0.01960078115472569,0.19755973786827777,0.0
0.06981817720153059,-0.019464793141459602,0.19758521885695682,0.0
0.06982676027140143,-0.019549550956434125,0.19762357445044212,0.0
0.06981227634099439,-0.01966327663222273,0.1975809273220214,0.0
0.0698240780620668,-0.01959139342205446,0.19760479898509967,0.0
0.06981925008526445,-0.019418390919970385,0.1975779768917533,0.0
0.0698232733992664,-0.019609900666463453,0.19760184855483157,0.0
0.06982541916673411,-0.019755544633334236,0.197628134206311,0.0
0.06981093523632707,-0.019701364004774572,0.19766783090446363,0.0
0.0698173725387302,-0.019483300385868596,0.1976377901599157,0.0
0.06981415388752864,-0.019457819397189546,0.19760882229910162,0.0
0.06980047461992199,-0.01965308423675111,0.19759407014776112,0.0
0.06981281278286132,-0.019625457480604347,0.1975712713684167,0.0
0.0698270284923349,-0.01946962111826195,0.19757341713588442,0.0
0.06983373401567149,-0.019416245152502676,0.19759407014776112,0.0
0.06982461450393372,-0.01962867613180591,0.1975948748105615,0.0
0.06981173989912746,-0.0196479880390153,0.19757985443828754,0.0
0.06981039879446015,-0.019510927142015355,0.1975699302637494,0.0
0.0698203229689983,-0.019392909931291336,0.19758843750815838,0.0
0.06983641622500612,-0.01957315439857893,0.19762062402017402,0.0
0.06981334922472825,-0.019630553678340157,0.1975956794733619,0.0
0.06981013057352668,-0.019499930083743344,0.19758065910108794,0.0
0.06981093523632707,-0.019419195582770776,0.19755786032174352,0.0
0.06984285352740925,-0.019608023119929208,0.1975779768917533,0.0
0.06985009549261277,-0.0196597897600877,0.1975535687868081,0.0
0.06983239291100417,-0.019570472189244292,0.19753345221679833,0.0
0.06983239291100417,-0.019438239269046698,0.19761177272936972,0.0
0.06983105180633685,-0.019564839549641555,0.19762920709004486,0.0
0.0698203229689983,-0.01968661185343407,0.19757851333362023,0.0
0.06982541916673411,-0.019591661642987923,0.19759407014776112,0.0
0.06982220051553255,-0.01943046086197625,0.19759246082216034,0.0
0.0698270284923349,-0.01951790088628541,0.19760640831070045,0.0
0.06983024714353646,-0.019661667306621947,0.19763162107844603,0.0
0.06982836959700221,-0.019605877352461498,0.1976310846365791,0.0
0.06982085941086523,-0.019436361722512452,0.1976377901599157,0.0
0.06982810137606875,-0.019462647373991893,0.1976326939621799,0.0
0.06983936665527422,-0.01966622706249083,0.19758441419415643,0.0
0.06983963487620769,-0.01965523000421882,0.19762062402017402,0.0
0.06982139585273216,-0.019469352897328485,0.19764530034605268,0.0
0.06982085941086523,-0.019442262583048653,0.19766085716019358,0.0
0.06982810137606875,-0.019609900666463453,0.19767936440460257,0.0
0.06983561156220573,-0.019580128142848985,0.1976503965437885,0.0
0.06983051536446992,-0.019423487117706195,0.19763349862498028,0.0
0.06983668444593959,-0.01938808195448899,0.19766702624166324,0.0
0.0698565327950159,-0.019485982595203233,0.1977153060096867,0.0
0.06981951830619791,-0.019577177712580884,0.19760721297350084,0.0
0.06983158824820378,-0.019538822119095578,0.19768338771860453,0.0
0.06984124420180847,-0.019398006129027145,0.19772737595169257,0.0
0.06984553573674389,-0.019557597584438036,0.19772630306795871,0.0
0.06984660862047774,-0.01963296766674133,0.19770913692821704,0.0
0.06984017131807461,-0.01955437893323647,0.19769223900940883,0.0
0.06981549499219596,-0.01941731803623653,0.1976925072303423,0.0
0.06981764075966367,-0.01950824493268072,0.19771074625381782,0.0
0.0698203229689983,-0.0196509384692834,0.19770109030021313,0.0
0.06981790898059713,-0.019587638328985968,0.1976917025675419,0.0
0.06981898186433098,-0.019386472628888207,0.19771584245155363,0.0
0.06981710431779674,-0.01947123044386273,0.19772523018422486,0.0
0.06982300517833294,-0.01964369650407988,0.19774320098676693,0.0
0.06983561156220573,-0.019605072689661107,0.19777780148718374,0.0
0.06982515094580065,-0.01945513718785491,0.19778933498732268,0.0
0.06982890603886914,-0.019433679513177815,0.19774534675423464,0.0
0.06983373401567149,-0.01960668201526189,0.1976997491955458,0.0
0.06984151242274193,-0.019685002527833288,0.19768392416047145,0.0
0.06984794972514506,-0.019484641490535914,0.1977456149751681,0.0
0.0698262238295345,-0.0194588922809234,0.19769733520714464,0.0
0.0698476815042116,-0.019633504108608257,0.19778531167332072,0.0
0.06984848616701199,-0.019597830724457588,0.19780730578986475,0.0
0.06982863781793568,-0.019467743571727703,0.19774132344023268,0.0
0.06985787389968322,-0.01941302650130111,0.19774963828917005,0.0
0.06986001966715093,-0.01962572570153781,0.1977957722897258,0.0
0.06985036371354623,-0.019679101667297087,0.19778665277798804,0.0
0.06984741328327813,-0.019524069967755076,0.1977885303245223,0.0
0.06985572813221551,-0.019408734966365693,0.1978003320455947,0.0
0.06985411880661473,-0.019580932805649376,0.1978341278832111,0.0
0.06984017131807461,-0.019680979213831332,0.19782715413894106,0.0
0.06983132002727031,-0.01957610482884703,0.19780998799919938,0.0
0.0698417806436754,-0.019409539629166084,0.19780194137119547,0.0
0.06984017131807461,-0.01957395906137932,0.19780998799919938,0.0
