0.09531767312498965,-0.02461919481983123,0.11229686287604128,0.0
0.09530533496205032,-0.0246519177737138,0.11225421574762055,0.0
0.09529138747351021,-0.024675521215858604,0.11222149279373798,0.0
0.09527904931057088,-0.02461543972676274,0.1122021808865286,0.0
0.09529433790377831,-0.024595323156752964,0.11219976689812743,0.0
0.0953106993807196,-0.02458700830781559,0.11239798216795709,0.0
0.0952892417060425,-0.02462643678503475,0.1122354402822781,0.0
0.0952589327405611,-0.02460953886622654,0.11225126531735245,0.0
0.09525946918242803,-0.024566355295938883,0.11226467636402564,0.0
0.09527690354310317,-0.024559113330735363,0.11217374946758145,0.0
0.09527395311283507,-0.024603638005690338,0.11215604688597285,0.0
0.09526429715923038,-0.024605515552224583,0.11216462995584368,0.0
0.09528575483390747,-0.024571451493674693,0.11218313720025268,0.0
0.09530211631084876,-0.024535778109524023,0.11217509057224877,0.0
0.0952833408455063,-0.024583789656614025,0.1121453180486343,0.0
0.09527797642683702,-0.024590495179950617,0.11207423950126642,0.0
0.09526751581043194,-0.02456608707500542,0.11198384904668916,0.0
0.09528655949670786,-0.024548920935263743,0.11232234386472033,0.0
0.09531767312498965,-0.024588885854349835,0.11229069379457161,0.0
0.09531123582258652,-0.02461543972676274,0.11225287464295323,0.0
0.09531204048538691,-0.02463367875023827,0.11223114874734268,0.0
0.095352005404473,-0.024594786714886036,0.11226628568962642,0.0
0.095352005404473,-0.02461758549423045,0.11211608196688676,0.0
0.09534529988113641,-0.024645212250377208,0.112117959513421,0.0
0.09532384220645931,-0.0246430664829095,0.11231241969018217,0.0
0.09533618036939864,-0.024616512610496594,0.11236364988847374,0.0
0.09531123582258652,-0.024620267703565086,0.11233039049272424,0.0
0.09527824464777049,-0.0245950549358195,0.1122383907125462,0.0
0.09530318919458261,-0.02458566720314827,0.11226521280589256,0.0
0.09531096760165306,-0.0245921045055514,0.11244009285451088,0.0
0.09529138747351021,-0.02454945737713067,0.11227513698043072,0.0
0.09533215705539669,-0.024530145469921286,0.11227647808509804,0.0
0.09530238453178222,-0.024554821795799944,0.1121815278746519,0.0
0.09527180734536736,-0.024596127819553355,0.11240790634249524,0.0
0.09529433790377831,-0.024611416412760784,0.11241997628450111,0.0
0.0953136498109877,-0.024585398982214807,0.11238591222595122,0.0
0.09526161494989574,-0.02461543972676274,0.1124081745634287,0.0
0.09529380146191138,-0.024596932482353746,0.11235935835353832,0.0
0.09527556243843585,-0.024613562180228494,0.1123971775051567,0.0
0.09525249543815797,-0.024598273587021064,0.11233092693459117,0.0
0.09525490942655915,-0.024577352354210893,0.11228291538750117,0.0
0.09529058281070982,-0.02456313664473732,0.11231027392271446,0.0
0.09523908439148479,-0.02464253004104257,0.11241461186583183,0.0
0.09527314845003468,-0.024595591377686427,0.1123572125860706,0.0
0.09527100268256697,-0.02462992365716978,0.11235453037673597,0.0
0.09525651875215993,-0.024654599983048437,0.11240576057502753,0.0
0.09523264708908166,-0.02465406354118151,0.11228532937590234,0.0
0.09523291531001513,-0.024648699122512236,0.11216436173491022,0.0
0.0952597374033615,-0.024613025738361567,0.11230973748084754,0.0
0.09524632635668831,-0.024564209528471173,0.11237545160954614,0.0
0.09527314845003468,-0.024560186214469218,0.11241434364489837,0.0
0.09527529421750239,-0.02457279259834201,0.11242855935437195,0.0
0.09524954500788987,-0.024580302784478994,0.11238564400501776,0.0
0.095255982310293,-0.024576547691410502,0.11234460620219781,0.0
0.09528387728737323,-0.024613562180228494,0.1123483612952663,0.0
0.09527019801976658,-0.02462134058729894,0.11228774336430351,0.0
0.09527180734536736,-0.024611416412760784,0.11233173159739156,0.0
0.09526832047323233,-0.024608734203426148,0.11240844278436217,0.0
0.09526107850802881,-0.024612221075561175,0.11239771394702362,0.0
0.09523908439148479,-0.024605515552224583,0.11247978955266351,0.0
0.09527690354310317,-0.024613562180228494,0.11240683345876139,0.0
0.09523693862401708,-0.02462777788970207,0.11235989479540524,0.0
0.09523479285654937,-0.024603369784756874,0.11231510189951681,0.0
0.09527046624070004,-0.02457708413327743,0.11228425649216849,0.0
0.09527314845003468,-0.024613830401161958,0.11220030333999435,0.0
0.09524847212415602,-0.024628850773435924,0.11229176667830547,0.0
0.09528495017110708,-0.024603638005690338,0.11236660031874184,0.0
0.0952589327405611,-0.024651381331846873,0.11233468202765966,0.0
0.09526537004296423,-0.024655136424915364,0.11229900864350899,0.0
0.09527422133376853,-0.02463743384330676,0.11226038482909022,0.0
0.09528360906643976,-0.02458405787754749,0.11220459487492977,0.0
0.09526697936856501,-0.02462429101756704,0.11242426781943653,0.0
0.09526429715923038,-0.024561527319136536,0.11235050706273401,0.0
0.09526215139176267,-0.024565282412205028,0.11251948625081613,0.0
0.0952382797286844,-0.02455160314459838,0.11236525921407452,0.0
0.09525812807776071,-0.02453416878392324,0.11230088619004323,0.0
0.09531606379938887,-0.024523708167518157,0.11231644300418413,0.0
0.09528897348510904,-0.024585398982214807,0.11223785427067927,0.0
0.09527851286870395,-0.02459129984275101,0.11231161502738178,0.0
0.09530533496205032,-0.024598541807954528,0.11236606387687491,0.0
0.09527770820590356,-0.02465406354118151,0.11231858877165184,0.0
0.09526215139176267,-0.024625095680367432,0.11215765621157363,0.0
0.09529621545031255,-0.024602833342889947,0.11220566775866363,0.0
0.09529782477591334,-0.02458271677288017,0.11248783618066742,0.0
0.09525437298469222,-0.0246401160526414,0.11232046631818608,0.0
0.09527824464777049,-0.024621877029165868,0.1123314633764581,0.0
0.09526537004296423,-0.024631801203704024,0.11235667614420368,0.0
0.09523613396121669,-0.02463448341303866,0.11232797650432307,0.0
0.09525705519402686,-0.024540069644459442,0.11229900864350899,0.0
0.09526885691509926,-0.024539801423525978,0.11224858310801782,0.0
0.09520609321666876,-0.024662646611052347,0.11241514830769876,0.0
0.09520528855386837,-0.024639043168907544,0.1123513117255344,0.0
0.0952146762865396,-0.024614903284895812,0.11232314852752072,0.0
0.09523854794961786,-0.024596127819553355,0.11224080470094737,0.0
0.09523291531001513,-0.024655404645848828,0.11233334092299234,0.0
0.09519375505372943,-0.02467230256465704,0.11239583640048938,0.0
0.09523398819374898,-0.024691614471866425,0.1122952535504405,0.0
0.09521199407720496,-0.024683567843862515,0.112291498457372,0.0
0.09522540512387814,-0.02461919481983123,0.11225823906162251,0.0
0.09524954500788987,-0.024637702064240225,0.11210991288541709,0.0
0.09523962083335172,-0.024655136424915364,0.11227889207349921,0.0
0.09522379579827736,-0.02468759115786447,0.11247335225026038,0.0
0.09524686279855524,-0.024650308448113018,0.11237357406301189,0.0
0.09522620978667853,-0.024688664041598325,0.11235694436513714,0.0
0.09519107284439479,-0.024676862320525923,0.1123365595741939,0.0
0.09520046057706602,-0.024656477529582683,0.11227218655016262,0.0
0.09521065297253764,-0.02466640170412084,0.11226628568962642,0.0
0.0952117258562715,-0.024657282192383074,0.11228425649216849,0.0
0.0952168220540073,-0.024654331762114973,0.11244304328477898,0.0
0.09522138180987619,-0.024663719494786202,0.11229364422483971,0.0
0.09519670548399753,-0.02472031411174704,0.11220620420053055,0.0
0.09522325935641043,-0.024673375448390895,0.11229042557363815,0.0
0.09522486868201122,-0.024688127599731397,0.11228881624803737,0.0
0.09522540512387814,-0.024680885634527878,0.11220969107266558,0.0
0.09523667040308362,-0.02464253004104257,0.1123003497481763,0.0
0.09520126523986641,-0.024631264761837097,0.11236740498154223,0.0
0.09519214572812865,-0.024651381331846873,0.11228372005030156,0.0
0.09522486868201122,-0.02463367875023827,0.11229042557363815,0.0
0.09523398819374898,-0.024614366843028885,0.11229686287604128,0.0
0.09525356832189183,-0.024610879970893857,0.1123816206910158,0.0
0.09521869960054155,-0.0246009557963557,0.11227165010829569,0.0
0.09524766746135563,-0.02461973126169816,0.1123344138067262,0.0
0.09524659457762177,-0.024645212250377208,0.1124089792262291,0.0
0.09523398819374898,-0.024652990657447655,0.11221156861919983,0.0
0.09522030892614233,-0.024665328820386984,0.11248327642479854,0.0
0.09525276365909144,-0.024648699122512236,0.11254711300696289,0.0
0.09519858303053177,-0.02469483312306799,0.11239905505169094,0.0
0.09523881617055133,-0.02467096145998972,0.1123454108649982,0.0
0.09524981322882334,-0.024694296681201062,0.11238430290035044,0.0
0.09522620978667853,-0.02477583584497402,0.11239074020275357,0.0
0.09521413984467267,-0.024763229461101228,0.11241917162170072,0.0
0.09522674622854546,-0.024652990657447655,0.1124111249936968,0.0
0.09523801150775094,-0.024662646611052347,0.11237920670261463,0.0
0.09525088611255719,-0.024646285134111063,0.11229578999230742,0.0
0.0952589327405611,-0.024689468704398716,0.11238591222595122,0.0
0.09525330010095837,-0.024691614471866425,0.1124679878315911,0.0
0.09522996487974703,-0.024710389937208883,0.1123942270748886,0.0
0.09523050132161395,-0.024697515332402626,0.11232824472525653,0.0
0.0952323788681482,-0.02471521791401123,0.11244170218011167,0.0
0.09521038475160418,-0.024728092518817486,0.11239288597022128,0.0
0.09521521272840652,-0.02467954452986056,0.11238296179568312,0.0
0.09523264708908166,-0.02466345127385274,0.11242507248223692,0.0
0.09522862377507971,-0.024668815692522012,0.11239905505169094,0.0
0.09520770254226954,-0.024656745750516147,0.11235077528366748,0.0
0.09520019235613256,-0.024712803925610056,0.11248408108759893,0.0
0.09520019235613256,-0.024644944029443745,0.11236204056287295,0.0
0.09522513690294468,-0.02464387114570989,0.11235050706273401,0.0
0.09523908439148479,-0.024659427959850783,0.11265145095008028,0.0
0.0952205771470758,-0.024700197541737263,0.11264125855460866,0.0
0.09521199407720496,-0.02473345693748676,0.11242239027290228,0.0
0.09529970232244758,-0.024722996321081676,0.11269812139250296,0.0
0.09523854794961786,-0.024731847611885977,0.11259056479818401,0.0
0.0952197724842754,-0.024699392878936872,0.11248166709919775,0.0
0.09524337592642021,-0.024663183052919275,0.11251170784374569,0.0
0.09524686279855524,-0.024700197541737263,0.11246074586638759,0.0
0.09523559751934976,-0.024750086635361507,0.11246852427345803,0.0
0.09524283948455328,-0.02468383606479598,0.11264072211274173,0.0
0.09524203482175289,-0.024709853495341955,0.1125345066230901,0.0
0.0952382797286844,-0.02468034919266095,0.11239503173768899,0.0
0.09524498525202099,-0.024677935204259777,0.11234004644632893,0.0
0.09526697936856501,-0.024638506727040616,0.11237008719087686,0.0
0.0952589327405611,-0.02465406354118151,0.11240495591222714,0.0
0.09529031458977635,-0.024611416412760784,0.11248998194813513,0.0
0.09526966157789965,-0.02461543972676274,0.11244089751731128,0.0
0.09521306696093881,-0.02463743384330676,0.1123218074228534,0.0
0.0952227229145435,-0.02460953886622654,0.11222256567747184,0.0
0.09524659457762177,-0.0245950549358195,0.11228693870150312,0.0
0.09524096193801904,-0.02462643678503475,0.11237786559794731,0.0
0.0951843673210582,-0.02464977200624609,0.11199913763989659,0.0
0.09521628561214038,-0.024617317273296985,0.11215014602543665,0.0
0.09522862377507971,-0.02463153298277056,0.11216650750237793,0.0
0.09519643726306407,-0.024651381331846873,0.11213780786249732,0.0
0.09520609321666876,-0.02462429101756704,0.11211930061808832,0.0
0.09523559751934976,-0.02460015113355531,0.11202408218670871,0.0
0.09516639651851613,-0.02462643678503475,0.11205170894285547,0.0
0.09519858303053177,-0.024614903284895812,0.11209811116434469,0.0
0.09522620978667853,-0.02464092071544179,0.11217106725824681,0.0
0.09522299113547697,-0.024672839006523967,0.11221934702627027,0.0
0.0951873177513263,-0.02469349201840067,0.11203695679151497,0.0
0.09518624486759245,-0.024690005146265643,0.11198250794202184,0.0
0.09519670548399753,-0.024755182833097317,0.11213888074623117,0.0
0.09520341100733412,-0.024716290797745084,0.11187521956863637,0.0
0.09520636143760222,-0.024716290797745084,0.1119267179878614,0.0
0.0952168220540073,-0.024737748472422178,0.11214880492076933,0.0
0.09519670548399753,-0.024756255716831172,0.11196105026734475,0.0
0.09519053640252786,-0.024792197321915305,0.11200986647723514,0.0
0.09522486868201122,-0.02471012171627542,0.11212654258329184,0.0
0.09522781911227932,-0.024711194600009274,0.11205090428005508,0.0
0.09521655383307384,-0.02467096145998972,0.11209596539687698,0.0
0.095207970763203,-0.024679276308927096,0.11215846087437402,0.0
0.09523398819374898,-0.02467525299492514,0.11199618720962849,0.0
0.09524900856602295,-0.024719509448946648,0.1120248868495091,0.0
0.09524203482175289,-0.024699392878936872,0.11215604688597285,0.0
0.09524015727521865,-0.02469054158813257,0.11203212881471263,0.0
0.0952471310194887,-0.024680080971727487,0.11209864760621162,0.0
0.09524015727521865,-0.024690005146265643,0.11218018676998458,0.0
0.09522620978667853,-0.024652990657447655,0.11197365665121754,0.0
0.09521709027494077,-0.02463797028517369,0.11184222839382034,0.0
0.09516988339065116,-0.024733188716553296,0.11207397128033296,0.0
0.09518999996066094,-0.024711999262809665,0.1120227410820414,0.0
0.09521253051907189,-0.024714413251210838,0.1121297612344934,0.0
0.09516183676264725,-0.024736139146821396,0.1121541693394386,0.0
0.09517632069305429,-0.02467149790185665,0.11211152221101787,0.0
0.09515164436717563,-0.024663987715719666,0.11202730083791028,0.0
0.09519509615839675,-0.02468839582066486,0.11224536445681625,0.0
0.0952109211934711,-0.02464977200624609,0.11228506115496888,0.0
0.09521279874000535,-0.024624559238500505,0.11222551610773994,0.0
0.0952087754260034,-0.024636092738639443,0.11218769695612156,0.0
0.09517980756518932,-0.02468625005319715,0.11221854236346988,0.0
0.09516746940224999,-0.024674180111191286,0.11218903806078888,0.0
0.0952020699026668,-0.024725946751349776,0.11240066437729172,0.0
0.09519375505372943,-0.024743917553891843,0.11245591788958524,0.0
0.09518839063506015,-0.024664792378520057,0.11241809873796686,0.0
0.0951902681815944,-0.024715486134944693,0.11229552177137396,0.0
0.09521065297253764,-0.024740430681756815,0.11223222163107653,0.0
0.09519643726306407,-0.024733993379353687,0.11253101975095507,0.0
0.09520126523986641,-0.024692150913733352,0.11241514830769876,0.0
0.09521896782147501,-0.02471977766988011,0.11269302519476715,0.0
0.09517766179772161,-0.02477878627524212,0.11264555008954408,0.0
0.09519241394906211,-0.02472487386761592,0.11246906071532496,0.0
0.09522620978667853,-0.024698051774269553,0.11254872233256367,0.0
0.09519643726306407,-0.02476108369363352,0.11255247742563217,0.0
0.09519053640252786,-0.024655404645848828,0.1126616433455519,0.0
0.09518329443732435,-0.02467525299492514,0.11252485066948541,0.0
0.09518490376292513,-0.024701002204537654,0.11253262907655585,0.0
0.09518248977452395,-0.024724337425748994,0.11247898488986312,0.0
0.09521950426334194,-0.024695101344001453,0.1124923959365363,0.0
0.09524176660081943,-0.024661573727318493,0.11252511889041887,0.0
0.09522781911227932,-0.024641457157308717,0.11257393510030926,0.0
0.09524874034508948,-0.024672034343723576,0.1125707164491077,0.0
0.09521279874000535,-0.02472487386761592,0.1125758126468435,0.0
0.09518114866985664,-0.02470502551853961,0.11260934026352647,0.0
0.09519831480959831,-0.024666669925054303,0.11257339865844233,0.0
0.095207970763203,-0.024671766122790113,0.11259887964712138,0.0
0.095207970763203,-0.02468973692533218,0.11266191156648536,0.0
0.09517471136745351,-0.024709048832541564,0.11261604578686307,0.0
0.09518034400705624,-0.02468839582066486,0.11271394642757732,0.0
0.09516854228598384,-0.024642261820109108,0.11263026149633665,0.0
0.09517632069305429,-0.02463797028517369,0.11257259399564194,0.0
0.09517363848371965,-0.024664792378520057,0.11259941608898831,0.0
0.0951481574950406,-0.02468169029732827,0.1127509609163953,0.0
0.09516827406505038,-0.024667742808788157,0.11266968997355581,0.0
0.09518463554199166,-0.024684908948529833,0.11274559649772603,0.0
0.09515539946024412,-0.024711462820942737,0.11278904828894715,0.0
0.09513876976236937,-0.024694296681201062,0.11269758495063603,0.0
0.09515244902997602,-0.024669888576255867,0.11264286788020944,0.0
0.09516264142544764,-0.02466854747158855,0.11270616802050687,0.0
0.0951578134486453,-0.02467149790185665,0.11270616802050687,0.0
0.09513850154143591,-0.024693223797467207,0.11261336357752844,0.0
0.09516773762318345,-0.024704220855739218,0.11267720015969279,0.0
0.09518812241412669,-0.024712803925610056,0.11271019133450882,0.0
0.09514172019263747,-0.024769398542570892,0.11265815647341687,0.0
0.0951548630183772,-0.024717095460545475,0.11274613293959296,0.0
0.09515834989051222,-0.024695369564934917,0.11270482691583955,0.0
0.09518383087919127,-0.024655941087715755,0.11276624950960273,0.0
0.09518812241412669,-0.02470583018134,0.11274452361399218,0.0
0.09518678130945937,-0.024720582332680503,0.11265091450821335,0.0
0.09519295039092904,-0.024710658158142346,0.11264125855460866,0.0
0.09519804658866485,-0.024699661099870335,0.11263187082193743,0.0
0.09518812241412669,-0.02472031411174704,0.11255113632096485,0.0
0.09515164436717563,-0.024756523937764636,0.11259002835631708,0.0
0.09515915455331261,-0.024745526879492625,0.11258064062364585,0.0
0.09516907872785077,-0.024709317053475028,0.11281238351015849,0.0
0.09518597664665898,-0.02471897300707972,0.11282552633589821,0.0
0.09517873468145546,-0.024761351914566982,0.11271260532291,0.0
0.09516049565797993,-0.024805876589521953,0.11274318250932486,0.0
0.09517766179772161,-0.02474659976322648,0.11276464018400195,0.0
0.09519268216999557,-0.02473640736775486,0.1127635673002681,0.0
0.09517793001865507,-0.024738284914289106,0.11273728164878866,0.0
0.09515298547184295,-0.02472111877454743,0.11264045389180827,0.0
0.09516478719291535,-0.024732384053752905,0.11267773660155972,0.0
0.09519509615839675,-0.02469349201840067,0.1127812698818767,0.0
0.09519563260026367,-0.02466640170412084,0.11272199305558123,0.0
0.09517202915811887,-0.024681422076394805,0.1126919523110333,0.0
0.0952020699026668,-0.024655941087715755,0.11273754986972212,0.0
0.09522379579827736,-0.024689468704398716,0.11276115331186692,0.0
0.09517578425118736,-0.02470207508827151,0.11272199305558123,0.0
0.09516559185571574,-0.024672034343723576,0.11260129363552256,0.0
0.09518168511172356,-0.024702343309204972,0.11249802857613904,0.0
0.0952168220540073,-0.024651381331846873,0.11252431422761848,0.0
0.09521360340280574,-0.024717095460545475,0.11286093149911541,0.0
0.09520475211200144,-0.02474579510042609,0.11280809197522307,0.0
0.09517900290238893,-0.024737480251488714,0.11260075719365563,0.0
0.09518785419319323,-0.02471092637907581,0.11282552633589821,0.0
0.0951991194723987,-0.02471602257681162,0.11277429613760664,0.0
0.0951725655999858,-0.024730774728152122,0.11262623818233469,0.0
0.09516854228598384,-0.02472541030948285,0.11264715941514486,0.0
0.09520770254226954,-0.024676862320525923,0.11271689685784542,0.0
0.09521413984467267,-0.024676325878658995,0.11270107182277106,0.0
0.09518946351879401,-0.024715754355878156,0.11265654714781609,0.0
0.09516639651851613,-0.0247087806116081,0.11262892039166933,0.0
0.09517229737905233,-0.02467015679718933,0.11265842469435033,0.0
0.09519080462346133,-0.02468973692533218,0.11271823796251274,0.0
0.09519402327466289,-0.024726483193216704,0.11275444778853033,0.0
0.09517041983251809,-0.02474150356549067,0.11269651206690218,0.0
0.09516639651851613,-0.02472836073975095,0.1125758126468435,0.0
0.0951991194723987,-0.024683567843862515,0.11250661164600988,0.0
0.0952087754260034,-0.024707707727874246,0.11251707226241496,0.0
0.09516505541384881,-0.024733725158420223,0.11286039505724849,0.0
0.09517149271625194,-0.02468544539039676,0.11272226127651469,0.0
0.09523479285654937,-0.02462858255250246,0.11266808064795503,0.0
0.0951999241351991,-0.02467659409959246,0.11263830812434056,0.0
0.09518570842572552,-0.024726751414150167,0.11266378911301961,0.0
0.09518034400705624,-0.02464762623877838,0.11270134004370452,0.0
0.09515164436717563,-0.024621877029165868,0.11257473976310965,0.0
0.09516907872785077,-0.02465996440171771,0.11261229069379458,0.0
0.09517068805345155,-0.024680885634527878,0.11277295503293933,0.0
0.09515513123931066,-0.024709317053475028,0.1125758126468435,0.0
0.09518302621639088,-0.02467739876239285,0.11249695569240518,0.0
0.09518839063506015,-0.024690809809066034,0.1125589147280353,0.0
0.09517229737905233,-0.024715754355878156,0.11262006910086503,0.0
0.09515030326250831,-0.024732652274686368,0.11253423840215664,0.0
0.09517712535585468,-0.024704757297606145,0.11260504872859105,0.0
0.09517605247212083,-0.02470958527440849,0.11262892039166933,0.0
0.09516156854171379,-0.024757060379631563,0.11260746271699222,0.0
0.09516934694878423,-0.02474820908882726,0.11257500798404312,0.0
0.09516398253011496,-0.02474874553069419,0.1126136317984619,0.0
0.09517980756518932,-0.024980488417206813,0.11266110690368497,0.0
0.09517658891398775,-0.025264266164811394,0.11264635475234447,0.0
0.09514949859970792,-0.025365385456727202,0.11250607520414295,0.0
0.0951688105069173,-0.025373432084731112,0.11238215713288273,0.0
0.09518034400705624,-0.025369408770729157,0.11264233143834251,0.0
0.09516451897198189,-0.0254015952827448,0.11263160260100397,0.0
0.09515003504157485,-0.025434586457560835,0.11250473409947563,0.0
0.09516156854171379,-0.025437000445962008,0.11256508380950496,0.0
0.09516451897198189,-0.0255005688071929,0.11268980654356558,0.0
0.09519402327466289,-0.025450411492635192,0.11266700776422117,0.0
0.09515969099517954,-0.025470796283578432,0.112561060495503,0.0
0.09516317786731457,-0.02543995087623011,0.11251036673907837,0.0
0.09518517198385859,-0.02542251651555497,0.11242534070317038,0.0
0.09518034400705624,-0.025419297864353405,0.11255194098376524,0.0
0.095159959216113,-0.02544799750423402,0.11267988236902743,0.0
0.09516478719291535,-0.025424394062089215,0.11255998761176915,0.0
0.09518302621639088,-0.025378528282466922,0.11259163768191786,0.0
0.09520126523986641,-0.02537477318939843,0.11267907770622704,0.0
0.09518302621639088,-0.025400790619944408,0.11252726465788658,0.0
0.09514091552983708,-0.02538496558487005,0.11244787126158133,0.0
0.09518007578612278,-0.025339368026181225,0.11251224428561261,0.0
0.0952168220540073,-0.025349023979785917,0.11239798216795709,0.0
0.09519643726306407,-0.02536672656139452,0.11241970806356764,0.0
0.09515432657651027,-0.025398913073410162,0.11261765511246385,0.0
0.09516103209984686,-0.025351974410054018,0.11257849485617814,0.0
0.0951658600766492,-0.02535787527059022,0.11261282713566151,0.0
0.09514332951823826,-0.025391671108206643,0.11257608086777697,0.0
0.09513099135529893,-0.02538630668953737,0.11253718883242474,0.0
0.0951519125881091,-0.025351974410054018,0.11252619177415273,0.0
0.0951578134486453,-0.025309595502566756,0.11254791766976328,0.0
0.09517873468145546,-0.025312545932834857,0.11254228503016055,0.0
0.09514923037877446,-0.025370749875396476,0.11239556817955591,0.0
0.09510846079688798,-0.02533024851444346,0.11230249551564402,0.0
0.095148962157841,-0.02532595697950804,0.11247657090146194,0.0
0.09517310204185273,-0.025341782014582398,0.11265896113621726,0.0
0.09514949859970792,-0.02533319894471156,0.11252216846015077,0.0
0.09513689221583513,-0.025285992060421952,0.11243901997077703,0.0
0.09515083970437524,-0.025290551816290835,0.11258976013538362,0.0
0.09515915455331261,-0.02533454004937888,0.11263911278714095,0.0
0.09514091552983708,-0.025384697363936587,0.11245672255238563,0.0
0.09514279307637133,-0.025372090980063794,0.11245243101745021,0.0
0.09516532363478228,-0.025340709130848543,0.11246637850599032,0.0
0.09517283382091926,-0.025351706189120554,0.11246932893625843,0.0
0.09514842571597407,-0.02533534471217927,0.11247335225026038,0.0
0.09513367356463356,-0.02534205023551586,0.11240281014475943,0.0
0.09517122449531848,-0.025296989118693963,0.1124422386219786,0.0
0.09517632069305429,-0.025293502246558935,0.11230785993431329,0.0
0.0951696151697177,-0.02531120482816754,0.11232046631818608,0.0
0.09518490376292513,-0.02531576458403642,0.11260826737979261,0.0
0.09518383087919127,-0.02530905906069983,0.11256535203043842,0.0
0.0951548630183772,-0.025284114513887707,0.1124982967970725,0.0
0.0951578134486453,-0.025309595502566756,0.11244304328477898,0.0
0.0951519125881091,-0.025349023979785917,0.11249293237840323,0.0
0.09517363848371965,-0.025297793781494354,0.11243526487770854,0.0
0.09518248977452395,-0.025275799664950332,0.1125197544717496,0.0
0.09518999996066094,-0.02528009119988575,0.11256642491417228,0.0
0.0951607638789134,-0.02526399794387793,0.11230598238777904,0.0
0.09514923037877446,-0.02531925145617145,0.11243419199397468,0.0
0.09517149271625194,-0.025282505188286925,0.11253584772775742,0.0
0.09518517198385859,-0.025280895862686142,0.11247603445959502,0.0
0.0951814168907901,-0.025288137827889662,0.11239449529582206,0.0
0.09515888633237915,-0.02526614371134564,0.11228425649216849,0.0
0.0951578134486453,-0.025248172908803573,0.11253799349522513,0.0
0.09516478719291535,-0.025258365304275193,0.11265225561288067,0.0
0.0951452070647725,-0.025286796723222343,0.11243901997077703,0.0
0.09514386596010518,-0.02526238861827715,0.11239315419115474,0.0
0.09515969099517954,-0.025245222478535473,0.11236311344660681,0.0
0.09516907872785077,-0.02522832455972726,0.11250071078547368,0.0
0.09516183676264725,-0.02523771229239849,0.11253504306495703,0.0
0.09512938202969815,-0.025222691920124524,0.11245591788958524,0.0
0.09515727700677837,-0.025153759140224358,0.11237545160954614,0.0
0.09517122449531848,-0.025152686256490503,0.11235104350460094,0.0
0.09517015161158462,-0.02517575325676838,0.11243580131957547,0.0
0.09513823332050245,-0.025152149814623576,0.112454040343051,0.0
0.09515432657651027,-0.02515027226808933,0.11252109557641692,0.0
0.09517685713492122,-0.025161001105427877,0.11251036673907837,0.0
0.09518034400705624,-0.02516475619849637,0.11248676329693356,0.0
0.09514279307637133,-0.025212499524652904,0.11246074586638759,0.0
0.09510363282008563,-0.0252487093506705,0.11243982463357742,0.0
0.09513447822743396,-0.025198552036112792,0.1124599412035872,0.0
0.09514252485543787,-0.02522966566439458,0.1124532356802506,0.0
0.09513394178556703,-0.025224033024791842,0.11237196473741111,0.0
0.09515218080904256,-0.025220009710789887,0.11217965032811765,0.0
0.09518329443732435,-0.025193724059310446,0.11253182441375546,0.0
0.09514386596010518,-0.025240930943600054,0.11261014492632687,0.0
0.09511918963422653,-0.025251391560005138,0.11254657656509597,0.0
0.09512696804129697,-0.025268021257879886,0.11235587148140329,0.0
0.09516505541384881,-0.025217863943322177,0.11243124156370658,0.0
0.09517095627438502,-0.02520203890824782,0.11250339299480831,0.0
0.0951334053437001,-0.025230738548128434,0.11245591788958524,0.0
0.09512428583196234,-0.025206598664116703,0.11230383662031133,0.0
0.09513233245996625,-0.025174143931167597,0.11237357406301189,0.0
0.09514842571597407,-0.025227788117860334,0.11239583640048938,0.0
0.0951717609371854,-0.025233957199329998,0.11233468202765966,0.0
0.09514762105317368,-0.025228056338793797,0.11240549235409407,0.0
0.09512214006449463,-0.025212767745586367,0.11250097900640714,0.0
0.0951637143091815,-0.02520793976878402,0.11258654148418205,0.0
0.09515647234397798,-0.02520713510598363,0.11242721824970463,0.0
0.0951098019015553,-0.025193724059310446,0.11232046631818608,0.0
0.09510202349448485,-0.025176021477701843,0.11262945683353626,0.0
0.09511811675049267,-0.02517065705903257,0.11258224994924663,0.0
0.09512509049476273,-0.02516556086129676,0.11254282147202747,0.0
0.0950883442268782,-0.02518165411730458,0.11248273998293161,0.0
0.09510363282008563,-0.02513873876795039,0.11251143962281222,0.0
0.09513742865770206,-0.025122913732876027,0.11250178366920753,0.0
0.0951068514712872,-0.025163683314762514,0.11250285655294139,0.0
0.09507573784300541,-0.025153490919290894,0.11253209263468893,0.0
0.09505347550552792,-0.025142762081952347,0.11249561458773787,0.0
0.09505025685432636,-0.025130155698079547,0.11237947492354809,0.0
0.09505696237766295,-0.025203111791981675,0.11262570174046777,0.0
0.0950521344008606,-0.025200966024513966,0.11260236651925641,0.0
0.09503094494711696,-0.025203648233848602,0.11235882191167139,0.0
0.09505991280793105,-0.025176289698635307,0.11240549235409407,0.0
0.09507976115700736,-0.025161537547294804,0.11246235519198837,0.0
0.09505964458699759,-0.02522617879225955,0.11239878683075748,0.0
0.09502289831911305,-0.025250586897204746,0.11234138755099625,0.0
0.09504891574965904,-0.025206062222249775,0.1122198834681372,0.0
0.09504569709845748,-0.025222691920124524,0.11262945683353626,0.0
0.09503899157512088,-0.02525219622280553,0.11262033732179849,0.0
0.09505106151712675,-0.025248441129737037,0.11253504306495703,0.0
0.09503765047045357,-0.0251977473733124,0.11245162635464982,0.0
0.095052939063661,-0.0251918465127762,0.11243955641264396,0.0
0.09505830348233027,-0.025253537327472847,0.11253128797188854,0.0
0.09501726567951031,-0.025249782234404355,0.11246825605252457,0.0
0.09500358641190366,-0.025215718175854468,0.11243526487770854,0.0
0.09504516065659055,-0.025203111791981675,0.11252458244855194,0.0
0.09504516065659055,-0.02523556652493078,0.11248756795973396,0.0
0.09503550470298586,-0.025219205047989496,0.1124178305170334,0.0
0.09506232679633222,-0.025195333384911228,0.11243982463357742,0.0
0.09507868827327351,-0.02518514098943961,0.11246235519198837,0.0
0.09507573784300541,-0.02517736258236916,0.11246342807572222,0.0
0.09504837930779211,-0.025224837687592233,0.11246771961065764,0.0
0.09504676998219133,-0.025205257559449384,0.11229498532950703,0.0
0.09504784286592519,-0.02524790468787011,0.11212520147862452,0.0
0.09506447256379993,-0.025277408990551115,0.11262945683353626,0.0
0.09505320728459446,-0.02528357807202078,0.11252055913454999,0.0
0.09508297980820893,-0.025276604327750724,0.11240281014475943,0.0
0.09508002937794083,-0.025281700525486533,0.11240039615635826,0.0
0.09507922471514044,-0.025280895862686142,0.11240763812156178,0.0
0.09507520140113848,-0.025292965804692008,0.1125219002392173,0.0
0.09509075821527938,-0.02525085511813821,0.11256213337923686,0.0
0.09507439673833809,-0.025251928001872065,0.11236525921407452,0.0
0.0951030963782187,-0.025294038688425863,0.11233468202765966,0.0
0.09507493318020502,-0.025305035746697874,0.11242051272636804,0.0
0.09505320728459446,-0.025288406048823125,0.1123491659580667,0.0
0.09510121883168446,-0.02523261609466268,0.11236311344660681,0.0
0.09513796509956898,-0.0252398580598662,0.11238027958634848,0.0
0.09509585441301519,-0.025309595502566756,0.11234004644632893,0.0
0.09507707894767273,-0.02531925145617145,0.11233682779512737,0.0
0.09510551036661988,-0.025248172908803573,0.11236874608620954,0.0
0.09511838497142613,-0.02526694837414603,0.1123971775051567,0.0
0.09510926545968837,-0.02531925145617145,0.11239959149355787,0.0
0.09508646668034396,-0.025328370967909214,0.11235184816740133,0.0
0.09510148705261792,-0.025267753036946422,0.11222471144493955,0.0
0.09511597098302496,-0.025268825920680277,0.1124561861105187,0.0
0.09513152779716585,-0.02523851695519888,0.112561060495503,0.0
0.09510470570381949,-0.025285992060421952,0.11243043690090619,0.0
0.09509612263394865,-0.02528357807202078,0.1124679878315911,0.0
0.09512669982036351,-0.025261583955476757,0.11247898488986312,0.0
0.09512965025063161,-0.025279018316151897,0.11247737556426234,0.0
0.09511543454115803,-0.02530986372350022,0.11242185383103535,0.0
0.09513152779716585,-0.02526024285080944,0.1123454108649982,0.0
0.0951334053437001,-0.02530181709549631,0.11242051272636804,0.0
0.09512509049476273,-0.025334271828445415,0.11243633776144239,0.0
0.09509156287807977,-0.025352510851920945,0.11235613970233675,0.0
0.09509290398274708,-0.02531200949096793,0.11254818589069675,0.0
0.09508405269194278,-0.025236102966797708,0.11239261774928781,0.0
0.09509451330834787,-0.025243344932001227,0.11233039049272424,0.0
0.09507681072673926,-0.02529457513029279,0.11239690928422323,0.0
0.09506581366846725,-0.025274726781216478,0.11223973181721351,0.0
0.09508780778501127,-0.025286796723222343,0.11221049573546597,0.0
0.09510953368062183,-0.02526399794387793,0.11254577190229557,0.0
0.0950920993199467,-0.025276067885883796,0.1125492587744306,0.0
0.09506742299406803,-0.025302085316429773,0.11247710734332887,0.0
0.0950617903544653,-0.025277408990551115,0.11241729407516647,0.0
0.09507815183140658,-0.025240126280799663,0.11246771961065764,0.0
0.09508110226167468,-0.025269362362547204,0.11242319493570267,0.0
0.09505240262179407,-0.02525085511813821,0.11237196473741111,0.0
0.09506366790099954,-0.025246831804136255,0.11239878683075748,0.0
0.09507251919180384,-0.02524495425760201,0.11241434364489837,0.0
0.09508512557567664,-0.0252428084901343,0.11242990045903926,0.0
0.09508673490127742,-0.02522966566439458,0.11238618044688468,0.0
0.09507412851740463,-0.025268021257879886,0.11246020942452066,0.0
0.09508593023847703,-0.025246295362269328,0.11250473409947563,0.0
0.09509075821527938,-0.025225910571326088,0.11248461752946586,0.0
0.09510068238981753,-0.025272312792815305,0.11251278072747954,0.0
0.09508941711061206,-0.025254341990273238,0.11252619177415273,0.0
0.09507842005234005,-0.025243076711067763,0.11217026259544642,0.0
0.09511033834342222,-0.025237444071465026,0.11236230878380642,0.0
0.09507466495927155,-0.025285992060421952,0.11258627326324859,0.0
0.09507305563367077,-0.025257560641474802,0.11245055347091597,0.0
0.095100950610751,-0.02525085511813821,0.11241648941236608,0.0
0.09513206423903278,-0.025230738548128434,0.1124687924943915,0.0
0.0951089972387549,-0.02526614371134564,0.11254523546042865,0.0
0.09506500900566686,-0.025294843351226254,0.11244974880811558,0.0
0.0950853937966101,-0.0252428084901343,0.11238671688875161,0.0
0.09511677564582535,-0.02525219622280553,0.11257554442591004,0.0
0.09508888066874513,-0.02531066838630061,0.11249427348307055,0.0
0.09504221022632245,-0.02530047599082899,0.11234353331846396,0.0
0.09504247844725591,-0.025237175850531562,0.11240281014475943,0.0
0.09505991280793105,-0.02526828947881335,0.1124207809473015,0.0
0.09508083404074122,-0.025268825920680277,0.112454040343051,0.0
0.09503148138898389,-0.02530771795603251,0.11239905505169094,0.0
0.095034431819252,-0.025281164083619606,0.11231322435298256,0.0
0.09506313145913262,-0.02526748481601296,0.11245269923838368,0.0
0.09504837930779211,-0.02525514665307363,0.1124805942154639,0.0
0.09501190126084104,-0.025308790839766365,0.11237679271421346,0.0
0.09504542887752401,-0.025259974629875975,0.11239369063302167,0.0
0.09510041416888407,-0.02526748481601296,0.11225877550348944,0.0
0.0950462335403244,-0.025292965804692008,0.11255703718150105,0.0
0.09502558052844769,-0.025261315734543294,0.11267532261315855,0.0
0.09503362715645161,-0.025265607269478713,0.11255381853029948,0.0
0.0950432831100563,-0.02524710002506972,0.1123639181094072,0.0
0.09505937636606412,-0.025266411932279104,0.1123344138067262,0.0
0.09505723059859641,-0.0253026217582967,0.11240415124942675,0.0
0.09504516065659055,-0.025303158200163628,0.11235104350460094,0.0
0.09506366790099954,-0.02525729242054134,0.11234943417900016,0.0
0.0950853937966101,-0.02525380554840631,0.11236552743500798,0.0
0.0950706416452696,-0.025272849234682232,0.11236552743500798,0.0
0.09504837930779211,-0.0253055721885648,0.11245296745931714,0.0
0.09506044924979798,-0.025270703467214523,0.11236016301633871,0.0
0.09508727134314435,-0.025259169967075584,0.11238993553995318,0.0
0.09506393612193301,-0.025272312792815305,0.11242158561010189,0.0
0.09502558052844769,-0.02526748481601296,0.11235077528366748,0.0
0.09505535305206217,-0.025222691920124524,0.11229498532950703,0.0
0.09507171452900345,-0.02525300088560592,0.11223061230547575,0.0
0.095082443366342,-0.025261583955476757,0.11235613970233675,0.0
0.09507386029647116,-0.025266680153212567,0.11224026825908044,0.0
0.09506071747073144,-0.025287601386022734,0.11235292105113519,0.0
0.09507895649420697,-0.025287601386022734,0.11242158561010189,0.0
0.09512696804129697,-0.025259974629875975,0.11249749213427211,0.0
0.09509612263394865,-0.02526533904854525,0.11238081602821541,0.0
0.0951001459479506,-0.025242540269200836,0.11247120648279267,0.0
0.0950676912150015,-0.02528009119988575,0.11232824472525653,0.0
0.09509585441301519,-0.025287064944155807,0.11235828546980446,0.0
0.09507117808713653,-0.025296452676827036,0.11247549801772809,0.0
0.095052939063661,-0.02528518739762156,0.11235157994646787,0.0
0.09507734716860619,-0.025261315734543294,0.11223329451481039,0.0
0.0950920993199467,-0.025230738548128434,0.11233119515552463,0.0
0.09507090986620306,-0.0252487093506705,0.11232529429498843,0.0
0.0950580352613968,-0.02525675597867441,0.11232100276005301,0.0
0.09508110226167468,-0.02520633044318324,0.11232824472525653,0.0
0.09507815183140658,-0.025221350815457205,0.11234272865566357,0.0
0.09507546962207195,-0.025206062222249775,0.1123609676791391,0.0
0.09506044924979798,-0.025214645292120613,0.1123454108649982,0.0
0.09503577292391932,-0.025227788117860334,0.11235265283020172,0.0
0.09507546962207195,-0.025194260501177373,0.11235828546980446,0.0
0.09507734716860619,-0.025191578291842737,0.11231671122511759,0.0
0.09507278741273731,-0.025185677431306536,0.11226467636402564,0.0
0.09510470570381949,-0.025158050675159777,0.11221961524720374,0.0
0.09512535871569619,-0.02519104184997581,0.11251412183214686,0.0
0.09507842005234005,-0.025209549094384803,0.11243365555210776,0.0
0.09505106151712675,-0.02517226638463335,0.1123513117255344,0.0
0.09507466495927155,-0.02514517607035352,0.11243526487770854,0.0
0.09510282815728524,-0.025128009930611837,0.11256266982110379,0.0
0.09507198274993692,-0.025155904907692067,0.11244331150571245,0.0
0.09504381955192323,-0.025187823198774245,0.11237250117927804,0.0
0.0950558894939291,-0.02518755497784078,0.11239020376088664,0.0
0.09507815183140658,-0.02516421975662944,0.1124591365407868,0.0
0.09508432091287625,-0.025173339268367206,0.11252109557641692,0.0
0.09505428016832831,-0.025221887257324133,0.11239369063302167,0.0
0.09506876409873535,-0.025197210931445474,0.11239476351675552,0.0
0.09509478152928133,-0.02517360748930067,0.11230303195751094,0.0
0.0950971955176825,-0.025167974849697933,0.11227138188736223,0.0
0.09507600606393887,-0.025173339268367206,0.11214853669983586,0.0
0.095082443366342,-0.025098773848864296,0.11234594730686513,0.0
0.09509156287807977,-0.02508750856965882,0.11237786559794731,0.0
0.09509665907581558,-0.02511728109327329,0.11236177234193949,0.0
0.09504730642405826,-0.02516126932636134,0.11235748080700407,0.0
0.09504247844725591,-0.02514437140755313,0.1124089792262291,0.0
0.09505132973806021,-0.025136861221416146,0.11237893848168116,0.0
0.09508271158727546,-0.025149735826222402,0.1124325826683739,0.0
0.09503630936578625,-0.025188627861574636,0.11231429723671642,0.0
0.09503952801698781,-0.025204721117582457,0.1121836736421196,0.0
0.09507466495927155,-0.02518165411730458,0.11235989479540524,0.0
0.09508083404074122,-0.025175485035834916,0.11255462319309988,0.0
0.09504811108685865,-0.02520928087345134,0.11234058288819586,0.0
0.09505669415672949,-0.025239321617999272,0.11240549235409407,0.0
0.09507278741273731,-0.025210353757185194,0.11236284522567334,0.0
0.09509585441301519,-0.02519989314078011,0.11221586015413525,0.0
0.09510416926195256,-0.025268021257879886,0.11254523546042865,0.0
0.09508432091287625,-0.02529162470002469,0.11254443079762826,0.0
0.09506688655220111,-0.02525729242054134,0.1124111249936968,0.0
0.09506822765686843,-0.02523771229239849,0.11234514264406474,0.0
0.09508405269194278,-0.02520713510598363,0.11255462319309988,0.0
0.09507976115700736,-0.025214645292120613,0.11271636041597849,0.0
0.09506688655220111,-0.025201502466380893,0.11236740498154223,0.0
0.09508351625007586,-0.02520203890824782,0.11224536445681625,0.0
0.09508753956407781,-0.02520928087345134,0.11244116573824474,0.0
0.09507037342433614,-0.025237444071465026,0.11240951566809602,0.0
0.09506259501726569,-0.025215718175854468,0.11228881624803737,0.0
0.09506849587780189,-0.02522027793172335,0.11239905505169094,0.0
0.09510121883168446,-0.025234225420263462,0.11249025016906859,0.0
0.0951068514712872,-0.02527258101374877,0.11253236085562239,0.0
0.0950558894939291,-0.025256487757740947,0.11250473409947563,0.0
0.09506447256379993,-0.025229933885328043,0.11241541652863223,0.0
0.0951060468084868,-0.02522832455972726,0.11240039615635826,0.0
0.09509665907581558,-0.025236639408664635,0.11245806365705295,0.0
0.09506795943593496,-0.025234225420263462,0.11248488575039932,0.0
0.09507788361047312,-0.02520928087345134,0.11219842579346011,0.0
0.09510792435502105,-0.025215718175854468,0.11231805232978491,0.0
0.09508753956407781,-0.025239053397065808,0.11266030224088458,0.0
0.09509370864554748,-0.025239589838932736,0.11253182441375546,0.0
0.09507788361047312,-0.025253537327472847,0.11243767886610971,0.0
0.09510229171541831,-0.02522376480385838,0.11244492083131323,0.0
0.09510416926195256,-0.025217059280521786,0.11251814514614882,0.0
0.09508056581980776,-0.02521866860612257,0.1125227049020177,0.0
0.09507305563367077,-0.025187018535973854,0.11247388869212731,0.0
0.09510041416888407,-0.025164487977562905,0.11252833754162044,0.0
0.09510846079688798,-0.025207403326917094,0.11264769585701179,0.0
0.09509451330834787,-0.025257560641474802,0.11249695569240518,0.0
0.09508673490127742,-0.02528223696735346,0.11241702585423301,0.0
0.09509960950608368,-0.025218936827056032,0.11242480426130345,0.0
0.09509826840141636,-0.02522376480385838,0.11253423840215664,0.0
0.09508110226167468,-0.025280359420819215,0.1126970485087691,0.0
0.0950440877728567,-0.025255414874007093,0.11248569041319971,0.0
0.09507251919180384,-0.02518460454757268,0.1124532356802506,0.0
0.09509317220368055,-0.025150808709956257,0.1124961510296048,0.0
0.09509048999434591,-0.025194260501177373,0.11237384228394535,0.0
0.09507010520340267,-0.025204452896648993,0.11248542219226625,0.0
0.09508780778501127,-0.02516985239623218,0.11269356163663408,0.0
0.09507734716860619,-0.02514222564008542,0.112609072042593,0.0
0.09508271158727546,-0.025208207989717485,0.11259190590285133,0.0
0.09508110226167468,-0.02522671523412648,0.1126002207517887,0.0
0.09508324802914239,-0.025201770687314357,0.11255542785590027,0.0
0.09510336459915217,-0.025186482094106927,0.11254657656509597,0.0
0.095100950610751,-0.025209817315318267,0.11258090884457932,0.0
0.09506044924979798,-0.02521518173398754,0.11258949191445015,0.0
0.09506554544753379,-0.02515831889609324,0.11254416257669479,0.0
0.09508378447100932,-0.02514007987261771,0.11252431422761848,0.0
0.09508056581980776,-0.025200697803580502,0.1125071480878768,0.0
0.09508110226167468,-0.025168243070631396,0.11268766077609788,0.0
0.09508458913380971,-0.025132569686480727,0.11272306593931508,0.0
0.09509370864554748,-0.025122645511942564,0.11271984728811352,0.0
0.09509773195954943,-0.02516341509382905,0.11256562025137189,0.0
0.09508458913380971,-0.02520123424544743,0.1125943198912525,0.0
0.09508378447100932,-0.025159928221694022,0.11262114198459888,0.0
0.09510470570381949,-0.02517146172183296,0.11236499099314105,0.0
0.0951060468084868,-0.025178971907969944,0.1125551596349668,0.0
0.09506983698246921,-0.02520713510598363,0.1128440335803072,0.0
0.09505052507525982,-0.025232347873729216,0.11267371328755776,0.0
0.09508271158727546,-0.025229129222527652,0.11258895547258323,0.0
0.09509075821527938,-0.025211963082785976,0.11267237218289045,0.0
0.09506420434286647,-0.025243881373868154,0.1127058997995734,0.0
0.09506500900566686,-0.025253269106539383,0.11260531694952451,0.0
0.09510121883168446,-0.025190773629042346,0.11264072211274173,0.0
0.09513876976236937,-0.025208207989717485,0.11269302519476715,0.0
0.09511677564582535,-0.02524066272266659,0.11264715941514486,0.0
0.095100950610751,-0.025224301245725306,0.11258707792604898,0.0
0.09510470570381949,-0.025232079652795752,0.11255381853029948,0.0
0.09511623920395842,-0.02526694837414603,0.11258976013538362,0.0
0.0951030963782187,-0.0252908200372243,0.11263911278714095,0.0
0.09510416926195256,-0.025296184455893572,0.11266298445021922,0.0
0.09511007012248876,-0.02523261609466268,0.11264555008954408,0.0
0.09512133540169423,-0.0251977473733124,0.11261497290312922,0.0
0.09510497392475295,-0.025154832023958212,0.11257313043750887,0.0
0.0950980001804829,-0.025219741489856423,0.11268712433423095,0.0
0.09512026251796038,-0.025192382954643128,0.11285932217351463,0.0
0.09511462987835764,-0.025170120617165642,0.11273701342785519,0.0
0.0951216036226277,-0.02517441215210106,0.11257983596084546,0.0
0.09507466495927155,-0.025249782234404355,0.11273084434638553,0.0
0.09506125391259837,-0.025266411932279104,0.11262757928700201,0.0
0.09508190692447507,-0.025211694861852513,0.11260263474018987,0.0
0.0950920993199467,-0.02520928087345134,0.11273674520692173,0.0
0.09506715477313457,-0.025249514013470892,0.11267827304342665,0.0
0.09504596531939094,-0.025213840629320222,0.11271314176477693,0.0
0.09508405269194278,-0.02520847621065095,0.11277161392827201,0.0
0.09509612263394865,-0.025235298303997317,0.1128019228937534,0.0
0.0950580352613968,-0.025258365304275193,0.11274345073025832,0.0
0.09504489243565709,-0.02524066272266659,0.11272387060211547,0.0
0.09505857170326373,-0.025203111791981675,0.11272333416024855,0.0
0.09508512557567664,-0.025205257559449384,0.1127450600558591,0.0
0.0950706416452696,-0.025240394501733127,0.11275230202106262,0.0
0.09505910814513066,-0.025251123339071674,0.11273379477665363,0.0
0.09506635011033418,-0.02521598639678793,0.11272869857891782,0.0
0.09507386029647116,-0.02520847621065095,0.11275283846292955,0.0
0.09506608188940072,-0.02522751989692687,0.11263750346154017,0.0
0.09503577292391932,-0.025218400385189105,0.11244572549411362,0.0
0.09504301488912284,-0.025273922118416087,0.11276893171893737,0.0
0.09508646668034396,-0.025242540269200836,0.11288507138312714,0.0
0.09509907306421675,-0.025242272048267372,0.11285744462698039,0.0
0.09507198274993692,-0.025220546152656814,0.11281855259162815,0.0
0.09508137048260815,-0.025218936827056032,0.11281721148696083,0.0
0.09509531797114826,-0.02521518173398754,0.11285342131297843,0.0
0.09509585441301519,-0.025229933885328043,0.11271582397411156,0.0
0.09505267084272753,-0.02526480260667832,0.11284081492910564,0.0
0.09506661833126764,-0.02523771229239849,0.11279038939361447,0.0
0.09508941711061206,-0.025231543210928825,0.11274318250932486,0.0
0.09512509049476273,-0.025223496582924915,0.1127657130677358,0.0
0.0950950497502148,-0.025232079652795752,0.1128646865921839,0.0
0.09506849587780189,-0.025203916454782066,0.11276222619560078,0.0
0.09507788361047312,-0.025171729942766424,0.11276973638173776,0.0
0.09511436165742418,-0.025178971907969944,0.11283250008016826,0.0
0.0951068514712872,-0.025204452896648993,0.1128469840105753,0.0
0.09508002937794083,-0.025220546152656814,0.11280540976588843,0.0
0.09507895649420697,-0.02519023718717542,0.11277510080040704,0.0
0.09510819257595451,-0.025172534605566815,0.1127598122071996,0.0
0.09511462987835764,-0.02523181143186229,0.11285690818511346,0.0
0.09509156287807977,-0.025239053397065808,0.11283732805697061,0.0
0.09508807600594474,-0.025179240128903407,0.11253772527429166,0.0
0.09511328877369032,-0.025165292640363296,0.11281426105669273,0.0
0.09510577858755334,-0.025203916454782066,0.11297680294237172,0.0
0.09510148705261792,-0.02519989314078011,0.11288426672032675,0.0
0.09509558619208172,-0.025176826140502234,0.1128469840105753,0.0
0.09511302055275686,-0.025137665884216537,0.11284912977804301,0.0
0.09511972607609345,-0.02516636552409715,0.11278234276561055,0.0
0.09510792435502105,-0.025258633525208657,0.11276893171893737,0.0
0.09511731208769228,-0.02522456946665877,0.11301381743118971,0.0
0.09509987772701714,-0.02521732750145525,0.11285556708044614,0.0
0.0951216036226277,-0.02523047032719497,0.11268336924116246,0.0
0.09509585441301519,-0.02520633044318324,0.11273808631158905,0.0
0.0950912946571463,-0.025224033024791842,0.11277858767254206,0.0
0.09513474644836742,-0.025176289698635307,0.11282177124282972,0.0
0.09512026251796038,-0.02516421975662944,0.11291108881367312,0.0
0.09512187184356116,-0.025193724059310446,0.11288185273192558,0.0
0.09509531797114826,-0.025195065163977765,0.11278261098654402,0.0
0.095082443366342,-0.0251918465127762,0.11275122913732877,0.0
0.09511543454115803,-0.02521866860612257,0.11284805689430916,0.0
0.09512079895982731,-0.02526989880441413,0.11284752045244223,0.0
0.09508673490127742,-0.025261583955476757,0.11262918861260279,0.0
0.09509531797114826,-0.025235030083063853,0.11259351522845211,0.0
0.09511597098302496,-0.025261315734543294,0.11298109447730714,0.0
0.09512562693662965,-0.025242540269200836,0.11292262231381206,0.0
0.09509907306421675,-0.025225105908525697,0.11281345639389234,0.0
0.0951068514712872,-0.025160732884494413,0.11279575381228374,0.0
0.09512804092503083,-0.025143566744752738,0.11280970130082385,0.0
0.09512133540169423,-0.025179776570770335,0.11280943307989039,0.0
0.09511731208769228,-0.02517494859396799,0.11277054104453815,0.0
0.09511758030862574,-0.025154832023958212,0.11279655847508413,0.0
0.09508914888967859,-0.025170388838099106,0.11283893738257139,0.0
0.09512079895982731,-0.0251918465127762,0.11286039505724849,0.0
0.09511811675049267,-0.025190505408108882,0.11293630158141871,0.0
0.09512267650636155,-0.025186482094106927,0.11285181198737765,0.0
0.0951275044831639,-0.02520793976878402,0.11274023207905676,0.0
0.09513018669249854,-0.025220009710789887,0.11280862841709,0.0
0.0951422566345044,-0.02520793976878402,0.11279441270761642,0.0
0.09509773195954943,-0.02520847621065095,0.11277885589347553,0.0
0.09509692729674904,-0.02520633044318324,0.11287219677832089,0.0
0.09511355699462379,-0.025175485035834916,0.1128705874527201,0.0
0.09510202349448485,-0.025227251675993406,0.1128528848711115,0.0
0.09509451330834787,-0.025189968966241955,0.11278636607961251,0.0
0.09511543454115803,-0.025179776570770335,0.11281265173109195,0.0
0.09512830914596429,-0.025196674489578547,0.11283545051043636,0.0
0.09511302055275686,-0.025211963082785976,0.11266700776422117,0.0
0.09509987772701714,-0.02519908847797972,0.1127576664397319,0.0
0.09508378447100932,-0.02516421975662944,0.11285503063857921,0.0
0.09507976115700736,-0.025195869826778156,0.11299718773331496,0.0
0.09509585441301519,-0.02519023718717542,0.11302320516386094,0.0
0.09507225097087038,-0.025234493641196926,0.11281828437069469,0.0
0.09507815183140658,-0.025217059280521786,0.11276919993987083,0.0
0.09510363282008563,-0.02518755497784078,0.11280594620775536,0.0
0.09511811675049267,-0.025211158419985585,0.11285100732457726,0.0
0.09509665907581558,-0.025233152536529607,0.11284564290590798,0.0
0.09505723059859641,-0.02525005045533782,0.11276866349800391,0.0
0.09511302055275686,-0.025188627861574636,0.11284349713844027,0.0
0.09511677564582535,-0.0251829952219719,0.11284081492910564,0.0
0.09508968533154552,-0.025233957199329998,0.11279092583548139,0.0
0.09508619845941049,-0.025204452896648993,0.11281345639389234,0.0
0.09510551036661988,-0.025166097303163687,0.11289901887166726,0.0
0.09508190692447507,-0.025193724059310446,0.11289258156926413,0.0
0.09506930054060228,-0.025245490699468937,0.11282391701029743,0.0
0.09505132973806021,-0.02521652283865486,0.11277107748640508,0.0
0.09507466495927155,-0.02518460454757268,0.11276973638173776,0.0
0.09511838497142613,-0.025179776570770335,0.11263884456620749,0.0
0.09509880484328329,-0.02518245878010497,0.11263026149633665,0.0
0.09506205857539876,-0.02522671523412648,0.11287514720858899,0.0
0.0950588399241972,-0.025178435466103016,0.11283276830110173,0.0
0.09507251919180384,-0.02516556086129676,0.11291296636020737,0.0
0.09507305563367077,-0.025194260501177373,0.11287461076672206,0.0
0.09505696237766295,-0.02521303596651983,0.11274988803266145,0.0
0.0950558894939291,-0.025179776570770335,0.11275149735826223,0.0
0.09504247844725591,-0.025210621978118658,0.11283196363830134,0.0
0.09504489243565709,-0.02519828381517933,0.11286575947591776,0.0
0.09505401194739485,-0.025190505408108882,0.11279173049828178,0.0
0.09506795943593496,-0.025181117675437653,0.11270992311357536,0.0
0.09510711969222066,-0.025173071047433743,0.11274237784652447,0.0
0.09511597098302496,-0.02519104184997581,0.11279468092854988,0.0
0.09506125391259837,-0.025209549094384803,0.11271823796251274,0.0
0.09505642593579602,-0.025199624919846647,0.11280004534721916,0.0
0.09508780778501127,-0.02514893116342201,0.1127657130677358,0.0
0.09509102643621284,-0.025159391779827095,0.11273352655572016,0.0
0.09506983698246921,-0.025192919396510055,0.11285610352231307,0.0
0.09506366790099954,-0.025144907849420056,0.11284510646404106,0.0
0.0950971955176825,-0.02509099544179385,0.11272467526491586,0.0
0.095082443366342,-0.025193455838376982,0.11278073344000977,0.0
0.09504381955192323,-0.025227788117860334,0.11283920560350486,0.0
0.09506742299406803,-0.025169584175298715,0.11275712999786497,0.0
0.09509987772701714,-0.025147053616887766,0.11267612727595894,0.0
0.09508512557567664,-0.025121840849142173,0.11278448853307826,0.0
0.09507010520340267,-0.025160732884494413,0.11289258156926413,0.0
0.09504945219152597,-0.025160196442627486,0.11281506571949312,0.0
0.09506742299406803,-0.025137665884216537,0.11278931650988061,0.0
0.09508914888967859,-0.025146248954087375,0.1128654912549843,0.0
0.0950883442268782,-0.02514812650062162,0.11287917052259094,0.0
0.09504837930779211,-0.025157246012359386,0.11281882081256162,0.0
0.09505106151712675,-0.025141957419151956,0.11280996952175731,0.0
0.0950588399241972,-0.02514893116342201,0.11286012683631502,0.0
0.09504972041245943,-0.025186482094106927,0.11285556708044614,0.0
0.09504435599379016,-0.02521652283865486,0.11282713566149899,0.0
0.09507573784300541,-0.0251800447917038,0.11286200438284927,0.0
0.09508458913380971,-0.025219741489856423,0.11284966621990994,0.0
0.09507225097087038,-0.025221350815457205,0.11286495481311737,0.0
0.09505669415672949,-0.025213304187453295,0.11284376535937374,0.0
0.09507171452900345,-0.025223496582924915,0.11267237218289045,0.0
0.09511543454115803,-0.025189164303441564,0.11254496723949518,0.0
0.0951148980992911,-0.02521518173398754,0.11298082625637368,0.0
0.09504086912165513,-0.025287601386022734,0.11303205645466524,0.0
0.09504542887752401,-0.02524066272266659,0.11300228393105077,0.0
0.09508002937794083,-0.025209012652517876,0.11291618501140893,0.0
0.09510068238981753,-0.025255414874007093,0.11280299577748726,0.0
0.0950706416452696,-0.025276872548684187,0.11280540976588843,0.0
0.09506339968006608,-0.025283041630153852,0.11274854692799413,0.0
0.0951157027620915,-0.025212499524652904,0.11298109447730714,0.0
0.09510738791315412,-0.025253269106539383,0.1129548088258277,0.0
0.09508727134314435,-0.025288137827889662,0.11285610352231307,0.0
0.09507117808713653,-0.02528357807202078,0.11285690818511346,0.0
0.09508914888967859,-0.025243881373868154,0.11284778867337569,0.0
0.09510953368062183,-0.02526024285080944,0.11288212095285904,0.0
0.09509183109901323,-0.02530342642109709,0.11292610918594709,0.0
0.09507439673833809,-0.02529028359535737,0.11284644756870837,0.0
0.0950971955176825,-0.025234493641196926,0.1128528848711115,0.0
0.09513421000650049,-0.02521142664091905,0.11275552067226419,0.0
0.09508190692447507,-0.025250586897204746,0.1128743425457886,0.0
0.09506018102886452,-0.02522966566439458,0.11305351412934234,0.0
0.09508056581980776,-0.02519265117557659,0.11292986427901558,0.0
0.09510551036661988,-0.0251800447917038,0.11293898379075334,0.0
0.09507788361047312,-0.025202575350114748,0.11296205079103122,0.0
0.09504837930779211,-0.02522376480385838,0.11291806255794318,0.0
0.09505696237766295,-0.02521008553625173,0.11281613860322698,0.0
0.09510416926195256,-0.025176021477701843,0.11292932783714865,0.0
0.0950883442268782,-0.025198820257046256,0.1129703656399686,0.0
0.0950411373425886,-0.025266411932279104,0.11287192855738742,0.0
0.0950558894939291,-0.02525675597867441,0.11291457568580815,0.0
0.09507788361047312,-0.025251928001872065,0.11295722281422887,0.0
0.09510282815728524,-0.025272312792815305,0.11310903586256932,0.0
0.09507922471514044,-0.025280895862686142,0.11308060444362217,0.0
0.09505562127299563,-0.025279554758018824,0.11287166033645396,0.0
0.09507707894767273,-0.02523851695519888,0.11274532827679257,0.0
0.09508968533154552,-0.02524200382733391,0.11275847110253229,0.0
0.0950558894939291,-0.02525085511813821,0.11308677352509183,0.0
0.09504784286592519,-0.025203648233848602,0.11302696025692943,0.0
0.09507090986620306,-0.02517655791956877,0.1129400566744872,0.0
0.09507600606393887,-0.025185677431306536,0.11295105373275921,0.0
0.09507332385460424,-0.025179776570770335,0.11299021398904491,0.0
0.09506983698246921,-0.025181117675437653,0.11299155509371223,0.0
0.09506125391259837,-0.025144103186619665,0.11295829569796273,0.0
0.09508780778501127,-0.025177630803302625,0.11293522869768485,0.0
0.09508727134314435,-0.025180313012637262,0.11303661621053412,0.0
0.09506930054060228,-0.0251977473733124,0.11300121104731692,0.0
0.09506795943593496,-0.02514812650062162,0.11293925201168681,0.0
0.09510175527355139,-0.025133106128347654,0.11296553766316625,0.0
0.0950920993199467,-0.0251829952219719,0.11305512345494312,0.0
0.09505454838926178,-0.025195601605844692,0.11304519928040496,0.0
0.09508512557567664,-0.025209549094384803,0.11299262797744608,0.0
0.09509612263394865,-0.02517575325676838,0.11304707682693921,0.0
0.09507868827327351,-0.02521598639678793,0.11307792223428753,0.0
0.09505159795899368,-0.025241735606400445,0.1129674152097005,0.0
0.0950580352613968,-0.025228592780660725,0.11296473300036586,0.0
0.09508700312221088,-0.02520284357104821,0.11295266305835999,0.0
0.09509478152928133,-0.02525300088560592,0.11298484957037563,0.0
0.09509344042461401,-0.0252546102112067,0.11299235975651262,0.0
0.09508378447100932,-0.025249514013470892,0.11294354354662223,0.0
0.09510282815728524,-0.025202575350114748,0.11287166033645396,0.0
0.0950920993199467,-0.025220009710789887,0.11278475675401173,0.0
0.09508056581980776,-0.025241735606400445,0.11312807954884524,0.0
0.09507976115700736,-0.025216254617721395,0.11310233033923273,0.0
0.0950580352613968,-0.025211963082785976,0.11296473300036586,0.0
0.09509156287807977,-0.025201770687314357,0.11299423730304686,0.0
0.09507466495927155,-0.02523127498999536,0.1130331293383991,0.0
0.09506259501726569,-0.025242272048267372,0.11295507704676117,0.0
0.09508807600594474,-0.02517494859396799,0.11293576513955178,0.0
0.09510255993635178,-0.025212499524652904,0.1130840913157572,0.0
0.09507332385460424,-0.02521518173398754,0.11308516419949105,0.0
0.09505857170326373,-0.025229129222527652,0.1130183771870586,0.0
0.09507144630806999,-0.02522617879225955,0.11305458701307619,0.0
0.09508110226167468,-0.025202307129181284,0.11304519928040496,0.0
0.09508324802914239,-0.025193455838376982,0.11300603902411926,0.0
0.09506822765686843,-0.02525595131587402,0.11290143286006843,0.0
0.09505132973806021,-0.025247368246003182,0.11291752611607625,0.0
0.09507868827327351,-0.025162073989161732,0.11292423163941284,0.0
0.09508807600594474,-0.025199356698913183,0.1132184700034225,0.0
0.09505320728459446,-0.02524200382733391,0.11311466850217206,0.0
0.09503630936578625,-0.025241735606400445,0.11302588737319558,0.0
0.09504650176125787,-0.02517146172183296,0.11304063952453608,0.0
0.09503282249365122,-0.025205525780382848,0.11304814971067306,0.0
0.09502021610977841,-0.025212499524652904,0.11305914676894507,0.0
0.09503148138898389,-0.025131496802746872,0.11304332173387072,0.0
0.09505428016832831,-0.02510494293033396,0.11304171240826993,0.0
0.09507520140113848,-0.02509609163952966,0.11307202137375133,0.0
0.09503630936578625,-0.025161805768228268,0.11299209153557915,0.0
0.09503765047045357,-0.02516636552409715,0.1130419806292034,0.0
0.09503362715645161,-0.025105747593134352,0.11292342697661245,0.0
0.09506366790099954,-0.025132569686480727,0.11291511212767508,0.0
0.09507198274993692,-0.025163683314762514,0.11322678485235987,0.0
0.09501914322604456,-0.025153490919290894,0.11316616692139708,0.0
0.09503309071458468,-0.025151613372756648,0.11276249441653424,0.0
0.09506661833126764,-0.025125864163144128,0.11271072777637575,0.0
0.09506849587780189,-0.02518165411730458,0.11308972395535993,0.0
0.09504381955192323,-0.025198552036112792,0.11314631857232077,0.0
0.09505723059859641,-0.025181385896371117,0.11305861032707815,0.0
0.0950617903544653,-0.02520123424544743,0.11316133894459474,0.0
0.09506500900566686,-0.025191578291842737,0.11314765967698809,0.0
0.09503040850525003,-0.025221350815457205,0.11309911168803116,0.0
0.09502316654004651,-0.025233957199329998,0.11306451118761435,0.0
0.09505374372646139,-0.0252369076295981,0.11306665695508206,0.0
0.09504435599379016,-0.025295648014026645,0.11305056369907424,0.0
0.0950381869123205,-0.025243344932001227,0.11312486089764368,0.0
0.09503416359831854,-0.02520713510598363,0.11307255781561826,0.0
0.09505374372646139,-0.025218936827056032,0.11315061010725619,0.0
0.09505186617992714,-0.025228592780660725,0.11320398607301546,0.0
0.09499419867923244,-0.025255414874007093,0.11309937990896463,0.0
0.09499875843510132,-0.02527338567654916,0.11313398040938144,0.0
0.09502611697031461,-0.02521947326892296,0.11316241182832859,0.0
0.09502745807498193,-0.025227251675993406,0.11315946139806049,0.0
0.09501619279577646,-0.02524710002506972,0.11311118163003703,0.0
0.09500090420256903,-0.025262656839210612,0.11304010308266915,0.0
0.09506715477313457,-0.025203916454782066,0.11301408565212318,0.0
0.09506313145913262,-0.02521518173398754,0.11307684935055368,0.0
0.09502906740058271,-0.02527633610681726,0.11323188105009568,0.0
0.0950188750051111,-0.02527633610681726,0.11318708815420725,0.0
0.09505079329619329,-0.025204452896648993,0.11324100056183345,0.0
0.09506259501726569,-0.02519265117557659,0.11324234166650077,0.0
0.09505857170326373,-0.02522671523412648,0.11330135027186278,0.0
0.09502638519124808,-0.02524710002506972,0.11333729187694691,0.0
0.09501029193524026,-0.02522322836199145,0.11308891929255954,0.0
0.09503362715645161,-0.025220814373590278,0.11307014382721708,0.0
0.0950432831100563,-0.025216791059588323,0.11324314632930116,0.0
0.09502021610977841,-0.025217863943322177,0.11337779323789993,0.0
0.09501699745857685,-0.025176289698635307,0.11326809087611328,0.0
0.09502531230751422,-0.025239321617999272,0.11317394532846753,0.0
0.09504837930779211,-0.025212767745586367,0.11333165923734417,0.0
0.09502450764471383,-0.02521357240838676,0.11332280794653987,0.0
0.0950277262959154,-0.02523261609466268,0.11331637064413674,0.0
0.09502879917964925,-0.02516261043102866,0.11334614316775121,0.0
0.09501941144697802,-0.02516556086129676,0.11328284302745378,0.0
0.09500760972590562,-0.025228592780660725,0.11310903586256932,0.0
0.094997417330434,-0.02521813216425564,0.11313532151404876,0.0
0.0950188750051111,-0.02520793976878402,0.11347059768087836,0.0
0.09503496826111893,-0.025203111791981675,0.11342017214538719,0.0
0.09504247844725591,-0.025236102966797708,0.11339656870324238,0.0
0.09501619279577646,-0.02521866860612257,0.11334453384215043,0.0
0.09500144064443596,-0.025178167245169553,0.11327130952731485,0.0
0.09500787794683908,-0.0251800447917038,0.11325709381784127,0.0
0.0949826651790935,-0.02518594565224,0.11333460966761227,0.0
0.0949376040622716,-0.025198015594245865,0.11332441727214065,0.0
0.09494216381814048,-0.025180313012637262,0.1132538751666397,0.0
0.09496737658588607,-0.025160732884494413,0.11328445235305457,0.0
0.0949797147488254,-0.025175216814901452,0.1135065392859625,0.0
0.09496174394628333,-0.025186213873173463,0.11339817802884317,0.0
0.09497327744642227,-0.025178167245169553,0.11285663996418,0.0
0.09498695671402892,-0.025237980513331953,0.11328954855079038,0.0
0.09498883426056316,-0.025220009710789887,0.11358593268226774,0.0
0.09500063598163556,-0.02522617879225955,0.1134185628197864,0.0
0.09503014028431657,-0.025191578291842737,0.11355481905398596,0.0
0.0949915164698978,-0.025166901965964078,0.11341775815698601,0.0
0.09498078763255925,-0.025197210931445474,0.11320130386368082,0.0
0.09500224530723635,-0.02517950834983687,0.11338208477283535,0.0
0.09499258935363165,-0.02516046466356095,0.11336599151682752,0.0
0.09500787794683908,-0.02514222564008542,0.11334292451654965,0.0
0.09503684580765318,-0.02513793410515,0.11339549581950853,0.0
0.09501914322604456,-0.025162342210095195,0.11340032379631088,0.0
0.09499661266763361,-0.02514222564008542,0.11338369409843613,0.0
0.0949797147488254,-0.025117817535140217,0.11331288377200172,0.0
0.09498829781869624,-0.02513873876795039,0.11337591569136568,0.0
0.09499205291176473,-0.02515107693088972,0.11345611375047132,0.0
0.09498588383029506,-0.025147858279688157,0.11339093606363965,0.0
0.09498990714429702,-0.02515402736115782,0.11327050486451445,0.0
0.09500170886536942,-0.025169584175298715,0.113347752493352,0.0
0.09501753390044378,-0.025193455838376982,0.1134488717852678,0.0
0.09499875843510132,-0.0251829952219719,0.11337672035416607,0.0
0.09499688088856707,-0.025174143931167597,0.11342875521525803,0.0
0.0950033181909702,-0.025173875710234134,0.11344350736659853,0.0
0.09499527156296629,-0.025224301245725306,0.11345021288993512,0.0
0.09499929487696825,-0.02522322836199145,0.11343251030832652,0.0
0.09501565635390953,-0.025168243070631396,0.11328177014371993,0.0
0.09500868260963947,-0.025174143931167597,0.11343304675019344,0.0
0.09500868260963947,-0.025175216814901452,0.11351109904183138,0.0
0.0949818605162931,-0.02520123424544743,0.11340595643591361,0.0
0.09498373806282735,-0.02516126932636134,0.11347354811114646,0.0
0.09498883426056316,-0.02515536846582514,0.11344699423873356,0.0
0.09498481094656121,-0.025185677431306536,0.1134791807507492,0.0
0.09497730076042422,-0.025228592780660725,0.1135419444491797,0.0
0.09497756898135769,-0.02519908847797972,0.11344243448286467,0.0
0.09499098002803087,-0.02516475619849637,0.11332253972560641,0.0
0.09500868260963947,-0.025156709570492458,0.11328874388798998,0.0
0.09499124824896434,-0.02519318761744352,0.1132782832715849,0.0
0.09499232113269819,-0.02520633044318324,0.11353765291424428,0.0
0.09502209365631266,-0.02517360748930067,0.11352316898383724,0.0
0.09500009953976864,-0.025209012652517876,0.11344672601780009,0.0
0.09499500334203283,-0.02521652283865486,0.1133507029236201,0.0
0.09497649609762383,-0.025269630583480668,0.11336706440056138,0.0
0.09500895083057294,-0.025239321617999272,0.11355911058892137,0.0
0.09502504408658076,-0.025229933885328043,0.11351109904183138,0.0
0.09500251352816981,-0.025224301245725306,0.11348990958808775,0.0
0.094967913027753,-0.025258633525208657,0.11336786906336177,0.0
0.0949620121672168,-0.025283041630153852,0.11341909926165333,0.0
0.094978910086025,-0.025233688978396535,0.11346898835527758,0.0
0.09498320162096043,-0.025215718175854468,0.11351136726276484,0.0
0.09495450198107981,-0.02523342075746307,0.11351002615809752,0.0
0.09495959817881562,-0.02520928087345134,0.11338986317990579,0.0
0.0949915164698978,-0.02518379988477229,0.11335982243535786,0.0
0.09499393045829897,-0.025220814373590278,0.11343680184326194,0.0
0.09498937070243009,-0.025247368246003182,0.11338879029617194,0.0
0.0950100237143068,-0.025212499524652904,0.11339522759857507,0.0
0.09501404702830875,-0.025211963082785976,0.1134488717852678,0.0
0.09500278174910327,-0.025246831804136255,0.1133566037841563,0.0
0.0949856156093616,-0.025234493641196926,0.1132509247363716,0.0
0.09498534738842813,-0.025233152536529607,0.11364923282256517,0.0
0.09500519573750445,-0.025204452896648993,0.11359263820560433,0.0
0.09499902665603478,-0.025256219536807484,0.11336330930749289,0.0
0.09499607622576668,-0.025214645292120613,0.11336706440056138,0.0
0.09497756898135769,-0.02519265117557659,0.11335123936548702,0.0
0.09498749315589584,-0.02517575325676838,0.11349312823928931,0.0
0.09501538813297607,-0.025170388838099106,0.11351995033263568,0.0
0.09500519573750445,-0.025200161361713574,0.11347193878554568,0.0
0.09498776137682931,-0.025228056338793797,0.11335231224922088,0.0
0.09499849021416785,-0.025203111791981675,0.11342768233152417,0.0
0.09503979623792128,-0.025219205047989496,0.11349205535555545,0.0
0.09501458347017568,-0.025251391560005138,0.11347783964608188,0.0
0.09499768555136746,-0.02525219622280553,0.11342634122685685,0.0
0.09500197708630288,-0.0251977473733124,0.11340327422657898,0.0
0.09501270592364143,-0.02516421975662944,0.11341373484298406,0.0
0.09501270592364143,-0.025202307129181284,0.11348722737875311,0.0
0.09498346984189389,-0.02524656358320279,0.11360712213601137,0.0
0.09499044358616394,-0.025186213873173463,0.11340837042431479,0.0
0.09501270592364143,-0.02516261043102866,0.11335123936548702,0.0
0.09500600040030484,-0.025198552036112792,0.11337618391229914,0.0
0.09499017536523048,-0.02522376480385838,0.11343599718046155,0.0
0.09502960384244964,-0.025224033024791842,0.11345530908767093,0.0
0.09505025685432636,-0.02518755497784078,0.11348025363448305,0.0
0.09505052507525982,-0.02521437707118715,0.11332575837680797,0.0
0.09501351058644182,-0.02523261609466268,0.11334641138868468,0.0
0.09499339401643205,-0.025246027141335864,0.11358807844973545,0.0
0.09501699745857685,-0.025212499524652904,0.11346416037847523,0.0
0.09501270592364143,-0.025232079652795752,0.11344377558753199,0.0
0.09502048433071188,-0.025218400385189105,0.11348132651821691,0.0
0.09501056015617372,-0.025192382954643128,0.11357252163559456,0.0
0.0950306767261835,-0.0251947969430443,0.11343975227353004,0.0
0.09505991280793105,-0.025237175850531562,0.11355884236798791,0.0
0.09505964458699759,-0.025242540269200836,0.11359183354280394,0.0
0.09502826273778232,-0.02526828947881335,0.11349178713462199,0.0
0.09503416359831854,-0.02525809708334173,0.11348830026248696,0.0
0.09507037342433614,-0.02522751989692687,0.11350197953009361,0.0
0.09505454838926178,-0.025315496363102957,0.1134783760879488,0.0
0.09503845513325396,-0.025335076491245806,0.1135234372047707,0.0
0.09505562127299563,-0.025212499524652904,0.11363984508989394,0.0
0.09502450764471383,-0.02521518173398754,0.11359317464747126,0.0
0.09502933562151618,-0.02527204457188184,0.11336062709815825,0.0
0.0950462335403244,-0.025243344932001227,0.11339764158697624,0.0
0.09503282249365122,-0.025229933885328043,0.11340354244751244,0.0
0.09505106151712675,-0.02522027793172335,0.1134223179128549,0.0
0.09505776704046334,-0.025233152536529607,0.11337618391229914,0.0
0.095026921633115,-0.02525219622280553,0.1132155195731544,0.0
0.09503550470298586,-0.02525219622280553,0.11339013140083926,0.0
0.09504355133098977,-0.02525005045533782,0.11360014839174132,0.0
0.095034431819252,-0.025276067885883796,0.11347220700647914,0.0
0.09503416359831854,-0.025254878432140165,0.1133979098079097,0.0
0.09502504408658076,-0.025209549094384803,0.11335472623762205,0.0
0.09502289831911305,-0.025195869826778156,0.1133507029236201,0.0
0.09504489243565709,-0.025257560641474802,0.11343385141299384,0.0
0.0950432831100563,-0.0252428084901343,0.11345423620393708,0.0
0.09501351058644182,-0.02526909414161374,0.11327050486451445,0.0
0.09501404702830875,-0.02526614371134564,0.11339683692417585,0.0
0.0950298720633831,-0.02527204457188184,0.11352263254197031,0.0
0.09501136481897411,-0.025273653897482623,0.11342553656405646,0.0
0.09499339401643205,-0.02525595131587402,0.11339281361017389,0.0
0.09500465929563752,-0.025203648233848602,0.11334909359801931,0.0
0.09502209365631266,-0.025244686036668545,0.11340407888937937,0.0
0.09499473512109936,-0.025270971688147986,0.1134644285994087,0.0
0.094978910086025,-0.025257560641474802,0.11337859790070032,0.0
0.09500814616777255,-0.025194260501177373,0.11346389215754177,0.0
0.09502504408658076,-0.025217595722388714,0.11353041094904076,0.0
0.09503979623792128,-0.025243881373868154,0.11351378125116601,0.0
0.09503094494711696,-0.025296452676827036,0.11339764158697624,0.0
0.0950180703423107,-0.02524790468787011,0.11322973528262797,0.0
0.0950247758656473,-0.025248441129737037,0.11336491863309367,0.0
0.09501243770270797,-0.025300207769895527,0.11360417170574327,0.0
0.09502423942378037,-0.02528223696735346,0.11349339646022277,0.0
0.09500948727243987,-0.025257560641474802,0.11345799129700557,0.0
0.09504086912165513,-0.025207671547850558,0.11347167056461221,0.0
0.0950558894939291,-0.025249245792537428,0.11341534416858484,0.0
0.09502155721444573,-0.02527633610681726,0.11347462099488032,0.0
0.09500573217937137,-0.025216254617721395,0.11353202027464154,0.0
0.0950210207725788,-0.025189164303441564,0.11352209610010339,0.0
0.0950381869123205,-0.025199624919846647,0.11356098813545562,0.0
0.0950151199120426,-0.025296989118693963,0.11349259179742238,0.0
0.0950188750051111,-0.025250318676271283,0.11350197953009361,0.0
0.09503765047045357,-0.02519989314078011,0.11351270836743216,0.0
0.09504837930779211,-0.025184336326639217,0.1135153905767668,0.0
0.0950033181909702,-0.02520633044318324,0.11349661511142434,0.0
0.09500439107470406,-0.02524200382733391,0.11347944897168266,0.0
0.09503309071458468,-0.025192919396510055,0.11348561805315233,0.0
0.09505964458699759,-0.025187286756907318,0.11359102888000355,0.0
0.09506152213353183,-0.025239589838932736,0.11360122127547517,0.0
0.09504247844725591,-0.025275263223083405,0.11359719796147322,0.0
0.09503148138898389,-0.02525675597867441,0.11352477830943802,0.0
0.09505910814513066,-0.02521089019905212,0.1133987144707101,0.0
0.09502155721444573,-0.025265607269478713,0.11355723304238713,0.0
0.0949856156093616,-0.02528947893255698,0.11369563504405439,0.0
0.09500895083057294,-0.025282773409220388,0.11361382765934797,0.0
0.09506554544753379,-0.02527553144401687,0.11368785663698394,0.0
0.09502504408658076,-0.02528223696735346,0.11361865563615031,0.0
0.09501726567951031,-0.02530101243269592,0.11349259179742238,0.0
0.09501351058644182,-0.025287601386022734,0.11351807278610143,0.0
0.09504060090072167,-0.02523771229239849,0.11350734394876288,0.0
0.09502960384244964,-0.025254073769339774,0.11349849265795858,0.0
0.09500600040030484,-0.025290015374423908,0.11362884803162193,0.0
0.09499312579549858,-0.02529457513029279,0.11357922715893115,0.0
0.09501377880737528,-0.025258365304275193,0.11354891819344975,0.0
0.09502799451684886,-0.025245222478535473,0.11361516876401528,0.0
0.09501270592364143,-0.02526614371134564,0.11353362960024233,0.0
0.09499366223736551,-0.025272312792815305,0.11344779890153395,0.0
0.09500465929563752,-0.02526614371134564,0.11362080140361802,0.0
0.09501565635390953,-0.02527499500214994,0.11363072557815618,0.0
0.09500760972590562,-0.025283309851087316,0.11365486546216791,0.0
0.09500358641190366,-0.025249245792537428,0.11356957120532646,0.0
0.09502423942378037,-0.025245490699468937,0.11352531475130495,0.0
0.09503255427271776,-0.02527714076961765,0.11338476698216998,0.0
0.09500385463283713,-0.02532300654923994,0.11362187428735188,0.0
0.09497810542322462,-0.025237980513331953,0.11371306940472954,0.0
0.09499768555136746,-0.02520123424544743,0.11356152457732255,0.0
0.09502638519124808,-0.025232079652795752,0.11366049810177065,0.0
0.09501967966791149,-0.02524790468787011,0.11370958253259451,0.0
0.0950129741445749,-0.025244149594801618,0.11364574595043014,0.0
0.0950062686212383,-0.025211158419985585,0.11359746618240668,0.0
0.09502236187724612,-0.02521437707118715,0.113569302984393,0.0
0.09504247844725591,-0.025249514013470892,0.11370234056739098,0.0
0.0950033181909702,-0.02526185217641022,0.11387185619734004,0.0
0.09500600040030484,-0.02524146738546698,0.11372192069553384,0.0
0.0950352364820524,-0.0252546102112067,0.11346469682034216,0.0
0.09503845513325396,-0.02526748481601296,0.11352021855356914,0.0
0.09503309071458468,-0.025276872548684187,0.11364440484576283,0.0
0.09501914322604456,-0.02526533904854525,0.11360604925227752,0.0
0.09504676998219133,-0.025204452896648993,0.11354569954224819,0.0
0.09505267084272753,-0.025207671547850558,0.11354999107718361,0.0
0.09502370298191344,-0.025247368246003182,0.113646818834164,0.0
0.09499527156296629,-0.025259438188009048,0.11358164114733232,0.0
0.09504972041245943,-0.025183263442905363,0.11358459157760042,0.0
0.0950462335403244,-0.025262120397343685,0.11362133784548495,0.0
0.09502558052844769,-0.02529591623496011,0.11368973418351819,0.0
0.09503765047045357,-0.025246027141335864,0.11357895893799769,0.0
0.09506608188940072,-0.0252546102112067,0.11346120994820713,0.0
0.09503845513325396,-0.025226447013193015,0.11371441050939686,0.0
0.09500385463283713,-0.025287869606956198,0.11368168755551428,0.0
0.09500948727243987,-0.025292965804692008,0.11365969343897026,0.0
0.09502209365631266,-0.025258633525208657,0.11362348361295266,0.0
0.09503148138898389,-0.025247368246003182,0.11365674300870215,0.0
0.09501082837710718,-0.025305035746697874,0.11366291209017182,0.0
0.09499849021416785,-0.0253055721885648,0.11371575161406418,0.0
0.09499795377230093,-0.025245490699468937,0.11368034645084696,0.0
0.09502504408658076,-0.025237444071465026,0.11360256238014249,0.0
0.09504462421472362,-0.02525085511813821,0.11365647478776869,0.0
0.09499983131883517,-0.02531415525843564,0.1137007312417902,0.0
0.0950151199120426,-0.025246831804136255,0.11364735527603093,0.0
0.09501753390044378,-0.025276872548684187,0.11377636954502697,0.0
0.09503604114485278,-0.0252908200372243,0.1138123111501111,0.0
0.09502879917964925,-0.025296184455893572,0.11364145441549472,0.0
0.09500439107470406,-0.02529537979309318,0.11357708139146344,0.0
0.09502638519124808,-0.02525809708334173,0.11360202593827556,0.0
0.09503282249365122,-0.02527553144401687,0.11378307506836356,0.0
0.09499580800483322,-0.025342318456449325,0.1136910752881855,0.0
0.09500814616777255,-0.0252996713280286,0.1136822239973812,0.0
0.09504435599379016,-0.02524200382733391,0.11351887744890182,0.0
0.0950580352613968,-0.025257024199607875,0.11374498769581172,0.0
0.09502423942378037,-0.025273117455615696,0.11389143632548289,0.0
0.09499419867923244,-0.025291088258157762,0.11380238697557295,0.0
0.09500573217937137,-0.025229933885328043,0.11386220024373535,0.0
0.09501324236550836,-0.025189164303441564,0.11365969343897026,0.0
0.09501699745857685,-0.025195869826778156,0.11365137859003288,0.0
0.09501404702830875,-0.025219205047989496,0.11367900534617964,0.0
0.09501941144697802,-0.025184872768506145,0.11372943088167083,0.0
0.09501404702830875,-0.025198820257046256,0.11370877786979412,0.0
0.09502209365631266,-0.025232347873729216,0.11376456782395457,0.0
0.09498668849309545,-0.025243076711067763,0.1137259440095358,0.0
0.09500412285377059,-0.025184336326639217,0.1136704222763088,0.0
0.09503014028431657,-0.025206598664116703,0.11367310448564344,0.0
0.09501324236550836,-0.025253269106539383,0.11369643970685478,0.0
0.09498293340002696,-0.025235298303997317,0.11371172830006222,0.0
0.09497193634175495,-0.025241199164533518,0.11375598475408373,0.0
0.09500251352816981,-0.025230202106261507,0.11384127901092518,0.0
0.09500653684217177,-0.025240394501733127,0.11393032836083512,0.0
0.09501699745857685,-0.025236102966797708,0.11361758275241646,0.0
0.09501431524924221,-0.025231006769061898,0.11342339079658875,0.0
0.0950151199120426,-0.025246831804136255,0.11386354134840267,0.0
0.09503121316805042,-0.02528438273482117,0.11384583876679406,0.0
0.0950462335403244,-0.025256219536807484,0.11387856172067663,0.0
0.09499929487696825,-0.025243076711067763,0.11375893518435183,0.0
0.09498802959776277,-0.025224301245725306,0.1136969761487217,0.0
0.09502423942378037,-0.025242272048267372,0.11382974551078624,0.0
0.09501351058644182,-0.025259974629875975,0.11383886502252401,0.0
0.0949885660396297,-0.025270167025347595,0.1137828068474301,0.0
0.09499393045829897,-0.0252457589204024,0.11376617714955535,0.0
0.09501029193524026,-0.025228056338793797,0.11388043926721088,0.0
0.09500304997003674,-0.025271776350948377,0.11381633446411306,0.0
0.09497917830695847,-0.02528572383948849,0.11369670792778824,0.0
0.09498749315589584,-0.02520633044318324,0.11368919774165126,0.0
0.09497488677202305,-0.02525005045533782,0.11362589760135383,0.0
0.09500009953976864,-0.025254878432140165,0.11380131409183909,0.0
0.09498534738842813,-0.025263729722944467,0.11383591459225591,0.0
0.0949826651790935,-0.025239321617999272,0.11375196144008178,0.0
0.09500251352816981,-0.025237444071465026,0.11378656194049859,0.0
0.09501485169110914,-0.025237444071465026,0.11379514501036943,0.0
0.09500304997003674,-0.0252428084901343,0.1137621538355534,0.0
0.0949738138882892,-0.025228592780660725,0.11367283626470998,0.0
0.0949700587952207,-0.025225642350392624,0.11353041094904076,0.0
0.09498722493496238,-0.025214913513054077,0.11398853230339674,0.0
0.09497488677202305,-0.02524495425760201,0.11385200784826373,0.0
0.09498078763255925,-0.02524200382733391,0.11374203726554362,0.0
0.09498615205122853,-0.025234493641196926,0.11381579802224613,0.0
0.09498293340002696,-0.025193724059310446,0.11382840440611892,0.0
0.09497032701615417,-0.025250586897204746,0.1138603226972011,0.0
0.09495772063228138,-0.02526614371134564,0.1138123111501111,0.0
0.0949708634580211,-0.025225105908525697,0.1137406961608763,0.0
0.09499232113269819,-0.02522537412945916,0.11378012463809546,0.0
0.09497783720229115,-0.025259169967075584,0.11376939580075691,0.0
0.09496228038815026,-0.025287601386022734,0.11370958253259451,0.0
0.09498078763255925,-0.025265875490412176,0.1137192384861992,0.0
0.09500546395843791,-0.025221350815457205,0.11372353002113463,0.0
0.09500063598163556,-0.02526399794387793,0.1136969761487217,0.0
0.09499339401643205,-0.025259438188009048,0.11377824709156122,0.0
0.0949885660396297,-0.02521652283865486,0.11371843382339882,0.0
0.09499232113269819,-0.025237980513331953,0.11361221833374718,0.0
0.09499875843510132,-0.025255683094940556,0.11372862621887043,0.0
0.09498025119069232,-0.025254878432140165,0.11380131409183909,0.0
0.0950003677607021,-0.02522456946665877,0.11373050376540468,0.0
0.0950210207725788,-0.025239053397065808,0.113713337625663,0.0
0.094997417330434,-0.025256219536807484,0.11361463232214836,0.0
0.09498963892336355,-0.02527633610681726,0.11350492996036171,0.0
0.0949641579346845,-0.02525890174614212,0.11382652685958468,0.0
0.09498588383029506,-0.02521089019905212,0.11394668983777641,0.0
0.09499580800483322,-0.025243881373868154,0.11400033402446914,0.0
0.09495637952761406,-0.025283846292954243,0.11363984508989394,0.0
0.09496630370215221,-0.025239589838932736,0.11350546640222864,0.0
0.09498883426056316,-0.02523476186213039,0.113628311589755,0.0
0.09496067106254948,-0.025252732664672456,0.11373399063753971,0.0
0.09492902099240076,-0.02527553144401687,0.11376027628901915,0.0
0.09494994222521093,-0.025254073769339774,0.11372943088167083,0.0
0.09498481094656121,-0.025219741489856423,0.11367256804377651,0.0
0.09500519573750445,-0.025211694861852513,0.11367256804377651,0.0
0.09500063598163556,-0.02526989880441413,0.11376751825422267,0.0
0.09495745241134791,-0.02526185217641022,0.11369992657898981,0.0
0.09497247278362188,-0.025233152536529607,0.1136800782299135,0.0
0.09499688088856707,-0.025251391560005138,0.11370529099765908,0.0
0.09501458347017568,-0.025262656839210612,0.1137347953003401,0.0
0.09498078763255925,-0.025283041630153852,0.11368329688111506,0.0
0.0949818605162931,-0.025261315734543294,0.11361302299654757,0.0
0.09499071180709741,-0.025230738548128434,0.1136342124502912,0.0
0.09497542321388998,-0.025241735606400445,0.11371575161406418,0.0
0.09494886934147707,-0.025235298303997317,0.11369456216032053,0.0
0.09491963325972953,-0.025284114513887707,0.11360122127547517,0.0
0.0949376040622716,-0.025278750095218433,0.11370850964886066,0.0
0.09494565069027551,-0.025227788117860334,0.11376000806808569,0.0
0.09494296848094087,-0.02526989880441413,0.11369858547432249,0.0
0.0949590617369487,-0.025246295362269328,0.11362884803162193,0.0
0.09497274100455534,-0.02525300088560592,0.1135862009032012,0.0
0.0949649625974849,-0.025254073769339774,0.11365003748536556,0.0
0.0949435049228078,-0.025262925060144076,0.11390109227908758,0.0
0.09493894516693892,-0.025248977571603964,0.11373935505620898,0.0
0.09494565069027551,-0.025217863943322177,0.11358217758919925,0.0
0.09498454272562774,-0.025211963082785976,0.1135958568568059,0.0
0.09497810542322462,-0.025283846292954243,0.11384717987146138,0.0
0.09495101510894478,-0.025302889979230164,0.11376483604488803,0.0
0.09496442615561797,-0.02526909414161374,0.11371601983499764,0.0
0.09497408210922266,-0.025256219536807484,0.11374284192834401,0.0
0.09496254860908372,-0.025296989118693963,0.11376832291702306,0.0
0.09494860112054361,-0.025276067885883796,0.1137192384861992,0.0
0.09497113167895456,-0.025216254617721395,0.11374686524234597,0.0
0.09498400628376082,-0.02519989314078011,0.11383457348758859,0.0
0.09496737658588607,-0.02522322836199145,0.11359961194987439,0.0
0.09494511424840858,-0.025278213653351506,0.11360417170574327,0.0
0.09494726001587629,-0.025257560641474802,0.11379997298717177,0.0
0.09495691596948098,-0.025231543210928825,0.11369939013712288,0.0
0.09495396553921288,-0.025305840409498265,0.11369965835805634,0.0
0.09494189559720702,-0.025288942490690053,0.11376832291702306,0.0
0.09493921338787238,-0.025255414874007093,0.11371762916059842,0.0
0.09494779645774322,-0.025279018316151897,0.11368490620671584,0.0
0.09496898591148685,-0.025260511071742903,0.11361221833374718,0.0
0.09494243203907395,-0.02532086078177223,0.11372353002113463,0.0
0.09494994222521093,-0.025300207769895527,0.11387427018574121,0.0
0.09496952235335378,-0.025240394501733127,0.11369912191618942,0.0
0.09494565069027551,-0.025268825920680277,0.11377958819622853,0.0
0.09497515499295651,-0.02530691329323212,0.1139209406281639,0.0
0.09498400628376082,-0.02531415525843564,0.11394722627964333,0.0
0.09493304430640272,-0.025287601386022734,0.11378307506836356,0.0
0.0949818605162931,-0.025265607269478713,0.11366371675297221,0.0
0.09496147572534987,-0.025301548874562846,0.1137036816720583,0.0
0.09495101510894478,-0.02529886666522821,0.11369295283471975,0.0
0.09496657192308568,-0.025251391560005138,0.11370529099765908,0.0
0.09497649609762383,-0.025249245792537428,0.11364360018296243,0.0
0.0949649625974849,-0.02529591623496011,0.11387695239507585,0.0
0.09495450198107981,-0.025299403107095136,0.11382652685958468,0.0
0.09495503842294674,-0.025262656839210612,0.11372111603273345,0.0
0.09494967400427747,-0.025294306909359326,0.11379085347543401,0.0
0.09496388971375104,-0.02529457513029279,0.11385576294133222,0.0
0.09494994222521093,-0.025320592560838767,0.11379085347543401,0.0
0.09495637952761406,-0.02528867426975659,0.11372540756766887,0.0
0.09496147572534987,-0.02525514665307363,0.11365352435750059,0.0
0.09496388971375104,-0.02527633610681726,0.11381123826637725,0.0
0.09497703253949076,-0.02526989880441413,0.11386434601120306,0.0
0.09498749315589584,-0.025256487757740947,0.1136910752881855,0.0
0.09500090420256903,-0.025282505188286925,0.11354060334451238,0.0
0.09499339401643205,-0.02533534471217927,0.11378495261489781,0.0
0.0949346536320035,-0.025355193061255582,0.11388258503467859,0.0
0.09494270026000741,-0.025355461282189046,0.1138691739880054,0.0
0.09496818124868646,-0.02531576458403642,0.11396466064031847,0.0
0.09494109093440663,-0.02534553710765089,0.11394239830284099,0.0
0.0949258023411992,-0.02539301221287396,0.11377958819622853,0.0
0.0949161463875945,-0.02534929220071938,0.11364145441549472,0.0
0.09491158663172562,-0.02534258667738279,0.11369053884631858,0.0
0.09492767988773344,-0.025330784956310387,0.11380480096397412,0.0
0.09491882859692914,-0.025349023979785917,0.113761349172753,0.0
0.09490488110838903,-0.02535492484032212,0.11375088855634792,0.0
0.09493572651573735,-0.025311741270034466,0.1137524978819487,0.0
0.09495181977174517,-0.025305840409498265,0.11372808977700351,0.0
0.09492848455053383,-0.025372090980063794,0.11382277176651619,0.0
0.09493384896920311,-0.025362703247392565,0.11385656760413261,0.0
0.09493921338787238,-0.025345805328584353,0.11373130842820507,0.0
0.09493519007387043,-0.025340172688981616,0.11385764048786647,0.0
0.09493572651573735,-0.02532890740977614,0.11386434601120306,0.0
0.09490568577118942,-0.025325420537641113,0.11376349494022071,0.0
0.09490756331772367,-0.025345805328584353,0.11378790304516591,0.0
0.09496442615561797,-0.025264534385744858,0.11387534306947507,0.0
0.09496603548121875,-0.025243076711067763,0.11385334895293105,0.0
0.09492231546906417,-0.0253085226188329,0.11378817126609937,0.0
0.09493063031800154,-0.025241199164533518,0.11377046868449077,0.0
0.09493599473667082,-0.025264266164811394,0.11368678375325009,0.0
0.09494752823680976,-0.02531791035150413,0.11367873712524618,0.0
0.09492714344586652,-0.025284919176688098,0.11373855039340859,0.0
0.09489737092225205,-0.025282773409220388,0.11392630504683317,0.0
0.09494216381814048,-0.025261583955476757,0.11397458481485663,0.0
0.09494967400427747,-0.02526480260667832,0.11404324937382333,0.0
0.09491426884106026,-0.025315228142169494,0.11386675999960423,0.0
0.09490273534092132,-0.02532300654923994,0.11368115111364735,0.0
0.09492633878306612,-0.02531576458403642,0.11377073690542423,0.0
0.09493679939947121,-0.025312277711901393,0.11383189127825395,0.0
0.09492472945746534,-0.02528223696735346,0.11396653818685272,0.0
0.09491882859692914,-0.025254073769339774,0.11376242205648686,0.0
0.09490246711998786,-0.02529028359535737,0.113598807287074,0.0
0.09493277608546925,-0.025303158200163628,0.11380372808024027,0.0
0.09495047866707786,-0.025283846292954243,0.11383940146439094,0.0
0.09495557486481367,-0.0252908200372243,0.11378146574276278,0.0
0.09494162737627355,-0.025270703467214523,0.11374015971900937,0.0
0.09494967400427747,-0.02527258101374877,0.11370502277672562,0.0
0.09496281683001719,-0.025310400165367147,0.11370636388139294,0.0
0.09494457780654166,-0.025288406048823125,0.11371897026526574,0.0
0.09492097436439685,-0.02531791035150413,0.11365513368310137,0.0
0.09495718419041445,-0.025308254397899438,0.11363474889215813,0.0
0.094967913027753,-0.025313350595635248,0.11364225907829512,0.0
0.09493653117853774,-0.025345805328584353,0.11369858547432249,0.0
0.09495396553921288,-0.025294038688425863,0.11343975227353004,0.0
0.0949738138882892,-0.025288137827889662,0.11363689465962584,0.0
0.09498293340002696,-0.025260779292676366,0.11381740734784691,0.0
0.09498507916749467,-0.02526909414161374,0.11370046302085673,0.0
0.09493116675986847,-0.025312277711901393,0.1136261658222873,0.0
0.09494162737627355,-0.025261583955476757,0.1136889295207178,0.0
0.09496362149281758,-0.02523851695519888,0.11379192635916786,0.0
0.09494296848094087,-0.02525300088560592,0.1135419444491797,0.0
0.09494833289961015,-0.02529752556056089,0.11353389782117579,0.0
0.09496844946961992,-0.025283309851087316,0.11366103454363757,0.0
0.09495369731827942,-0.025291356479091226,0.11360202593827556,0.0
0.09493438541107004,-0.025313082374701784,0.1135811047054654,0.0
0.09492043792252992,-0.025350096863519772,0.11356152457732255,0.0
0.09491641460852797,-0.02531495992123603,0.11364735527603093,0.0
0.0949346536320035,-0.02531495992123603,0.11361195011281372,0.0
0.09493519007387043,-0.02530101243269592,0.1136674718460407,0.0
0.09490568577118942,-0.025345268886717426,0.11357359451932841,0.0
0.09490944086425791,-0.02530691329323212,0.11348481339035194,0.0
0.09494109093440663,-0.025284114513887707,0.1134783760879488,0.0
0.09492177902719724,-0.025328370967909214,0.11339951913351048,0.0
0.09490085779438708,-0.02534419600298357,0.11337081949362987,0.0
0.09492338835279802,-0.025301548874562846,0.11361624164774914,0.0
0.09494323670187434,-0.02528518739762156,0.11363367600842428,0.0
0.09493223964360233,-0.02533829514244737,0.11353926223984506,0.0
0.09491748749226182,-0.025328639188842678,0.11356769365879221,0.0
0.09488127766624423,-0.025253269106539383,0.11348561805315233,0.0
0.09487698613130881,-0.025284650955754634,0.11333326856294496,0.0
0.09489281116638316,-0.025295111572159718,0.11358164114733232,0.0
0.09488503275931272,-0.025291356479091226,0.11355025929811707,0.0
0.09488744674771389,-0.025259974629875975,0.11344243448286467,0.0
0.09490005313158668,-0.025207671547850558,0.11349715155329126,0.0
0.0949131959573264,-0.0252487093506705,0.11363099379908964,0.0
0.09490354000372171,-0.02530691329323212,0.11366103454363757,0.0
0.0948807412243773,-0.025276872548684187,0.1134126619592502,0.0
0.09491346417825987,-0.025229933885328043,0.11340273778471205,0.0
0.09494109093440663,-0.025218400385189105,0.11361087722907987,0.0
0.09491426884106026,-0.02525219622280553,0.11350600284409557,0.0
0.09489737092225205,-0.025258633525208657,0.11349312823928931,0.0
0.09490836798052406,-0.02522027793172335,0.11357627672866305,0.0
0.0949249976783988,-0.025223496582924915,0.1136047081476102,0.0
0.09492365657373149,-0.02522617879225955,0.11362053318268456,0.0
0.09488422809651233,-0.025256487757740947,0.11354543132131473,0.0
0.09491882859692914,-0.025245490699468937,0.11324556031770233,0.0
0.09492767988773344,-0.02524200382733391,0.1136194602989507,0.0
0.09490997730612484,-0.02530476752576441,0.11382813618518546,0.0
0.09488503275931272,-0.025340977351782007,0.11377905175436161,0.0
0.09488154588717769,-0.025311473049101002,0.11361516876401528,0.0
0.09492258368999763,-0.02532086078177223,0.11361195011281372,0.0
0.09489307938731663,-0.025294843351226254,0.1137103871953949,0.0
0.09487966834064344,-0.025288406048823125,0.11357091230999378,0.0
0.09489093361984892,-0.025265070827611785,0.11354301733291355,0.0
0.0949161463875945,-0.02525595131587402,0.11361168189188026,0.0
0.09493492185293696,-0.025281164083619606,0.11365808411336947,0.0
0.0949228519109311,-0.02529028359535737,0.1136497692644321,0.0
0.09489307938731663,-0.025214645292120613,0.11361168189188026,0.0
0.09491641460852797,-0.025178435466103016,0.11363904042709355,0.0
0.09492902099240076,-0.025211694861852513,0.1136881248579174,0.0
0.09490756331772367,-0.02523851695519888,0.1136261658222873,0.0
0.09490997730612484,-0.02522456946665877,0.11360443992667674,0.0
0.09494726001587629,-0.02518379988477229,0.11357171697279417,0.0
0.0949258023411992,-0.02521866860612257,0.11364360018296243,0.0
0.09490193067812093,-0.02526748481601296,0.11375678941688412,0.0
0.09489951668971976,-0.02522886100159419,0.11360926790347908,0.0
0.09491292773639294,-0.025232079652795752,0.11368410154391545,0.0
0.0949249976783988,-0.0252546102112067,0.11369563504405439,0.0
0.09493626295760428,-0.025271508130014914,0.11351565879770026,0.0
0.09490649043398981,-0.02527338567654916,0.11353738469331082,0.0
0.09488798318958082,-0.025263461502011003,0.11385227606919719,0.0
0.0949110501898587,-0.025240126280799663,0.11379246280103479,0.0
0.09491963325972953,-0.025289210711623517,0.11381928489438116,0.0
0.09489093361984892,-0.02529752556056089,0.11376885935888999,0.0
0.09490541755025596,-0.02524710002506972,0.11372782155607004,0.0
0.09492258368999763,-0.02522832455972726,0.1137406961608763,0.0
0.0949190968178626,-0.02525809708334173,0.11374686524234597,0.0
0.09488905607331467,-0.025313350595635248,0.11372353002113463,0.0
0.09493063031800154,-0.025253269106539383,0.11382062599904848,0.0
0.09492177902719724,-0.02524656358320279,0.11381150648731071,0.0
0.09489147006171585,-0.025259974629875975,0.11378253862649663,0.0
0.09488503275931272,-0.025264266164811394,0.11379246280103479,0.0
0.0948600882125006,-0.02525890174614212,0.11373989149807591,0.0
0.094901394236254,-0.025245222478535473,0.11369161173005243,0.0
0.09491373239919333,-0.025190773629042346,0.11375732585875105,0.0
0.09487349925917378,-0.02527714076961765,0.1140191094898116,0.0
0.0948504322588959,-0.02525219622280553,0.11395366358204646,0.0
0.09486062465436752,-0.025211963082785976,0.11387373374387429,0.0
0.09487537680570803,-0.025209549094384803,0.11392040418629697,0.0
0.09486947594517182,-0.02525675597867441,0.11395554112858071,0.0
0.0948600882125006,-0.025238785176132345,0.11365754767150255,0.0
0.09485874710783328,-0.025232347873729216,0.11383135483638702,0.0
0.0948681348405045,-0.025237175850531562,0.11407114435090356,0.0
0.09487054882890568,-0.025234493641196926,0.11397056150085468,0.0
0.09484640894489395,-0.02522886100159419,0.11388499902307976,0.0
0.09484667716582741,-0.025184872768506145,0.11382572219678429,0.0
0.09486974416610529,-0.02519989314078011,0.11387668417414239,0.0
0.09487215815450646,-0.025229933885328043,0.11400221157100339,0.0
0.0948482864914282,-0.025263461502011003,0.11394373940750831,0.0
0.09486250220090177,-0.025254878432140165,0.11388929055801518,0.0
0.09489602981758473,-0.025263729722944467,0.11394910382617758,0.0
0.09491802393412875,-0.02525890174614212,0.11402313280381356,0.0
0.09487725435224227,-0.02528357807202078,0.11391316222109345,0.0
0.09488878785238121,-0.025287601386022734,0.1138729290810739,0.0
0.09488556920117965,-0.025227788117860334,0.11393515633763747,0.0
0.09487001238703875,-0.025238785176132345,0.11391048001175881,0.0
0.09489173828264931,-0.025249514013470892,0.11390967534895842,0.0
0.09487618146850842,-0.025251391560005138,0.11389921473255334,0.0
0.09487269459637339,-0.025263461502011003,0.11394803094244373,0.0
0.09487537680570803,-0.025262120397343685,0.11405746508329691,0.0
0.0948681348405045,-0.025254878432140165,0.11403922605982138,0.0
0.09486277042183523,-0.025233957199329998,0.11398558187312864,0.0
0.09488825141051428,-0.025209012652517876,0.11392630504683317,0.0
0.0949051493293225,-0.025224033024791842,0.11396492886125194,0.0
0.09488127766624423,-0.025273117455615696,0.11405987907169808,0.0
0.0948630386427687,-0.025296452676827036,0.11390431093028915,0.0
0.09489147006171585,-0.025257560641474802,0.11374471947487826,0.0
0.09490354000372171,-0.02527928653708536,0.11421893408524204,0.0
0.09486759839863758,-0.02531281415376832,0.11409528423491529,0.0
0.09486545263116987,-0.025257828862408266,0.1139858500940621,0.0
0.09488127766624423,-0.025224033024791842,0.11400087046633607,0.0
0.09489147006171585,-0.025242540269200836,0.11401079464087423,0.0
0.09488476453837925,-0.025279822978952288,0.11403708029235367,0.0
0.09488154588717769,-0.025301280653629382,0.11401374507114233,0.0
0.09487457214290763,-0.025264266164811394,0.11389814184881948,0.0
0.09488449631744579,-0.025217595722388714,0.11404324937382333,0.0
0.09490327178278825,-0.02524790468787011,0.11417440941028707,0.0
0.09487457214290763,-0.025331589619110778,0.11407409478117166,0.0
0.09487001238703875,-0.025288406048823125,0.11401186752460808,0.0
0.09489924846878629,-0.02526024285080944,0.11402366924568048,0.0
0.09487752257317573,-0.02529833022336128,0.11408965159531255,0.0
0.0948571377822325,-0.025287064944155807,0.11410494018851998,0.0
0.09485365091009747,-0.025335076491245806,0.11406819392063546,0.0
0.09488154588717769,-0.025320324339905304,0.11411379147932428,0.0
0.09489173828264931,-0.02530771795603251,0.11417011787535165,0.0
0.09487349925917378,-0.025357607049656755,0.11413927246800333,0.0
0.09487323103824032,-0.025320324339905304,0.11410413552571959,0.0
0.09489737092225205,-0.02531576458403642,0.11410735417692115,0.0
0.0949102455270583,-0.025307181514165583,0.11410601307225383,0.0
0.09488127766624423,-0.02533400360751195,0.11401991415261199,0.0
0.09487135349170607,-0.02536002103805793,0.11417735984055517,0.0
0.09487752257317573,-0.025292965804692008,0.11414034535173719,0.0
0.09490273534092132,-0.025328639188842678,0.1139896051871306,0.0
0.09487993656157691,-0.02537396852659804,0.11422617605044556,0.0
0.09483192501448691,-0.025394621538474743,0.1142200069689759,0.0
0.09487001238703875,-0.02538711135233776,0.11422429850391132,0.0
0.09491346417825987,-0.025351974410054018,0.11430664233048467,0.0
0.09489066539891546,-0.025406691480480612,0.11422268917831054,0.0
0.0948954933757178,-0.025381478712735023,0.11415590216587808,0.0
0.09487403570104071,-0.025331321398177314,0.11416663100321663,0.0
0.09488637386398004,-0.02529833022336128,0.11425192526005808,0.0
0.09488825141051428,-0.02535867993339061,0.11411701013052584,0.0
0.09485794244503289,-0.025395694422208598,0.11406175661823233,0.0
0.09487725435224227,-0.025341782014582398,0.1141513424100092,0.0
0.0948954933757178,-0.025310131944433684,0.1141631441310816,0.0
0.09489898024785283,-0.025313887037502175,0.11419130732909528,0.0
0.09487269459637339,-0.025338563363380834,0.1141298847353321,0.0
0.09486142931716791,-0.0253565341659229,0.11404110360635562,0.0
0.09489039717798199,-0.025355461282189046,0.11417011787535165,0.0
0.09490890442239099,-0.025315228142169494,0.11429215840007763,0.0
0.0948925429454497,-0.025341513793648934,0.11423019936444752,0.0
0.09487752257317573,-0.02532005611897184,0.1141424911192049,0.0
0.09490488110838903,-0.02528733316508927,0.11412237454919512,0.0
0.09491829215506221,-0.025261583955476757,0.11416824032881741,0.0
0.09492365657373149,-0.025287601386022734,0.11417735984055517,0.0
0.09491292773639294,-0.025328639188842678,0.11399818825700143,0.0
0.09491051374799177,-0.025315496363102957,0.11378978059170015,0.0
0.09490944086425791,-0.025345268886717426,0.11438710861052377,0.0
0.09490032135252015,-0.0253476828751186,0.1143905954826588,0.0
0.09488127766624423,-0.0253447324448505,0.11418191959642406,0.0
0.09488154588717769,-0.02530396286296402,0.1141660945613497,0.0
0.09489334760825009,-0.025310400165367147,0.11420391371296808,0.0
0.09488932429424814,-0.025345268886717426,0.11422483494577824,0.0
0.09487028060797222,-0.025348755758852454,0.11421812942244165,0.0
0.09488476453837925,-0.02534553710765089,0.11419667174776456,0.0
0.09490488110838903,-0.025355193061255582,0.1141905026662949,0.0
0.09490112601532054,-0.02538711135233776,0.11419398953842992,0.0
0.09487135349170607,-0.02537182275913033,0.11419452598029685,0.0
0.09487215815450646,-0.025349560421652845,0.11415697504961193,0.0
0.09490407644558864,-0.025324615874840722,0.11421517899217355,0.0
0.09489871202691937,-0.025316569246836812,0.11439327769199344,0.0
0.09488932429424814,-0.02534553710765089,0.11419613530589763,0.0
0.09487671791037534,-0.025317642130570667,0.11409099269997987,0.0
0.09490622221305635,-0.025288942490690053,0.11411030460718925,0.0
0.0949110501898587,-0.02529537979309318,0.11415831615427925,0.0
0.09489093361984892,-0.025333467165645024,0.1140279607806159,0.0
0.09489629803851819,-0.02533614937497966,0.11406631637410121,0.0
0.09493679939947121,-0.025289747153490444,0.11453114325179377,0.0
0.09490166245718747,-0.025305035746697874,0.11463601763677807,0.0
0.09487913189877652,-0.025348755758852454,0.11436189584277819,0.0
0.09488288699184501,-0.025325688758574577,0.1140818731882421,0.0
0.09492124258533031,-0.02518379988477229,0.11439247302919305,0.0
0.09494511424840858,-0.02519265117557659,0.11457942301981723,0.0
0.09490970908519138,-0.025302889979230164,0.11420123150363344,0.0
0.09489093361984892,-0.025316569246836812,0.1146268981250403,0.0
0.0948866420849135,-0.02528867426975659,0.11476985988257644,0.0
0.09493384896920311,-0.025234493641196926,0.1139083342442911,0.0
0.09491882859692914,-0.02526238861827715,0.11392067240723043,0.0
0.09489763914318551,-0.025335076491245806,0.11410306264198573,0.0
0.09490541755025596,-0.02529162470002469,0.1140161590595435,0.0
0.0949249976783988,-0.025266680153212567,0.11411030460718925,0.0
0.09493143498080193,-0.025276872548684187,0.11422671249231249,0.0
0.0949043446665221,-0.025304499304830946,0.11410198975825188,0.0
0.09489361582918356,-0.025316569246836812,0.11432327202835942,0.0
0.09490541755025596,-0.02531710568870374,0.11445174985548852,0.0
0.09494001805067277,-0.0253055721885648,0.11442278199467444,0.0
0.09487752257317573,-0.025352510851920945,0.11422027518990936,0.0
0.09488020478251037,-0.025305840409498265,0.11407945919984093,0.0
0.09491507350386065,-0.02528009119988575,0.11413551737493484,0.0
0.09493063031800154,-0.025298598444294745,0.11418165137549059,0.0
0.09496442615561797,-0.025300207769895527,0.11404834557155914,0.0
0.09495369731827942,-0.025220546152656814,0.1138611273600015,0.0
0.09491051374799177,-0.025243344932001227,0.1143240766911598,0.0
0.09489629803851819,-0.02533400360751195,0.11433909706343377,0.0
0.09489683448038512,-0.025339904468048152,0.11424495151578802,0.0
0.09487001238703875,-0.025362166805525638,0.11428920796980953,0.0
0.09490970908519138,-0.025287064944155807,0.11422832181791327,0.0
0.09488127766624423,-0.02534982864258631,0.11419962217803266,0.0
0.09489737092225205,-0.025404277492079436,0.11438040308718718,0.0
0.0948866420849135,-0.025364044352059884,0.11429135373727724,0.0
0.09486169753810138,-0.02537396852659804,0.11410225797918534,0.0
0.09490675865492328,-0.0253565341659229,0.11428223422553947,0.0
0.09488315521277847,-0.025427076271423852,0.11428008845807176,0.0
0.09483326611915423,-0.02539649908500899,0.11437021069171556,0.0
0.09483836231689004,-0.025353851956588264,0.11432461313302673,0.0
0.09487001238703875,-0.025361362142725247,0.11442197733187405,0.0
0.09487886367784305,-0.02537101809632994,0.11438791327332416,0.0
0.09485177336356322,-0.025396230864075525,0.1143661873777136,0.0
0.0948445313983597,-0.025352510851920945,0.11429349950474495,0.0
0.09488208232904462,-0.025286260281355416,0.11432032159809132,0.0
0.0948925429454497,-0.02528572383948849,0.11439515523852768,0.0
0.0948659890730368,-0.025326493421374968,0.1143728929010502,0.0
0.09484265385182546,-0.025333735386578488,0.11432541779582713,0.0
0.09486786661957104,-0.025301548874562846,0.11432702712142791,0.0
0.09488610564304657,-0.025294843351226254,0.11435358099384081,0.0
0.09487591324757495,-0.025304231083897483,0.11432005337715785,0.0
0.09486786661957104,-0.0252996713280286,0.11431978515622439,0.0
0.09488020478251037,-0.025301548874562846,0.11443458371574684,0.0
0.09486625729397026,-0.025369945212596084,0.11456064755447477,0.0
0.09488154588717769,-0.02541312878288374,0.11440266542466467,0.0
0.09489334760825009,-0.025365385456727202,0.11419720818963149,0.0
0.0949279481086669,-0.025284114513887707,0.114270968946334,0.0
0.0949249976783988,-0.025285455618555025,0.11459578449675852,0.0
0.09487752257317573,-0.025423052957421897,0.11492006360531612,0.0
0.09488476453837925,-0.025394889759408207,0.11495895564066835,0.0
0.09490488110838903,-0.025375309631265358,0.11493293821012238,0.0
0.09490675865492328,-0.02538711135233776,0.11544175332090298,0.0
0.09489066539891546,-0.02535277907285441,0.11509869874700293,0.0
0.09487966834064344,-0.025372090980063794,0.11554260439188532,0.0
0.09486920772423836,-0.025339904468048152,0.11748559683389626,0.0
0.09488476453837925,-0.025409641910748713,0.1147974866387232,0.0
0.09486759839863758,-0.02546033566717335,0.11507321775832388,0.0
0.09474984940884702,-0.025411251236349495,0.1184573612758352,0.0
0.09478015837432842,-0.025323542991106868,0.11834846357684894,0.0
0.0946406834889273,-0.025329175630709605,0.1198325300017035,0.0
0.09456558162755747,-0.025443169527431673,0.11582209060455448,0.0
0.09425471356567307,-0.02563092418085625,0.11527921143522399,0.0
0.09422413637925821,-0.026341977875468478,0.1158167261858852,0.0
0.09414876629695491,-0.026314082898388255,0.1153913277854118,0.0
0.09402431178382777,-0.025268557699746813,0.1152843076329598,0.0
0.09412516285481011,-0.025753501147449155,0.11440212898279774,0.0
0.09496388971375104,-0.025568160482425748,0.11373318597473932,0.0
0.09485391913103093,-0.02513283790741419,0.11152706879700051,0.0
0.09363351388377117,-0.025427880934224243,0.11621905758608074,0.0
0.09262232096461306,-0.026073220500137866,0.11638052658802588,0.0
0.09412408997107626,-0.025408300806081394,0.11370126768365713,0.0
0.09650428253463299,-0.024786564682312568,0.11296500122129932,0.0
0.09595308851636511,-0.025071415313651,0.11141468422587922,0.0
0.09531177226445345,-0.02545175259730251,0.11425889900432813,0.0
0.09518651308852591,-0.025584790180300496,0.11628825858691437,0.0
0.09444783263776692,-0.025572452017361167,0.11452738815872528,0.0
0.09442637496308982,-0.025464627202108767,0.1134585277388725,0.0
0.09417532016936782,-0.025427076271423852,0.11533339206378365,0.0
0.09425900510060849,-0.02558076686629854,0.11405639219956305,0.0
0.09466294582640479,-0.025511297644531448,0.11378548905676474,0.0
0.09459589059303887,-0.025557163424153737,0.11528001609802438,0.0
0.09476835665325602,-0.025379332945267313,0.1144348519366803,0.0
0.09278942260616094,-0.02546784585331033,0.11622871353968543,0.0
0.08866740330069105,-0.02577710458959396,0.11313290752564759,0.0
0.09400231766728374,-0.025525781574938487,0.11256937534444038,0.0
0.09720004763603778,-0.025214645292120613,0.11494715391959595,0.0
0.09551293796455121,-0.025236639408664635,0.11438979081985841,0.0
0.09539813940502875,-0.025354656619388655,0.113358749551624,0.0
0.09463102753532261,-0.0256534547392672,0.11527813855149013,0.0
0.09490166245718747,-0.025738212554241725,0.11308757818789222,0.0
0.09505857170326373,-0.025580230424431614,0.11286012683631502,0.0
0.09481690464221294,-0.02549037641172128,0.11433400086569796,0.0
0.09493787228320506,-0.025377991840599995,0.11461134131089941,0.0
0.09473107394350457,-0.02548313444651776,0.11379514501036943,0.0
0.09454814726688233,-0.025269362362547204,0.11305887854801161,0.0
0.09467635687307797,-0.025209012652517876,0.11460544045036321,0.0
0.09477828082779417,-0.025266680153212567,0.11416180302641428,0.0
0.09474743542044585,-0.02552685445867234,0.11374713346327943,0.0
0.09453741842954379,-0.025724533286635078,0.11461858327610293,0.0
0.0940358452839667,-0.025708171809693793,0.11416421701481545,0.0
0.09429548314755955,-0.025205794001316312,0.11352960628624037,0.0
0.09427187970541474,-0.025271776350948377,0.11544148509996952,0.0
0.09494779645774322,-0.025317642130570667,0.11420793702697003,0.0
0.09463075931438915,-0.02538335625926927,0.11347167056461221,0.0
0.0944797509288491,-0.02522456946665877,0.11332361260934026,0.0
0.09399239349274559,-0.025425198724889606,0.11521054687625729,0.0
0.09428716829862217,-0.025614562703914965,0.11514536918942561,0.0
0.09445078306803502,-0.025564405389357257,0.11392254995376468,0.0
0.09481609997941255,-0.02525219622280553,0.11416126658454735,0.0
0.09450523191752815,-0.02529162470002469,0.11435921363344355,0.0
0.09463424618652418,-0.025412860561950277,0.11296178257009776,0.0
0.0947485083041797,-0.025548043912415972,0.11356527967039104,0.0
0.09515513123931066,-0.025416347434085305,0.11276034864906653,0.0
0.09498481094656121,-0.02538791601513815,0.11477924761524767,0.0
0.09467367466374334,-0.025318983235237985,0.11456011111260785,0.0
0.0944612436844401,-0.02550486034212832,0.1137621538355534,0.0
0.09471498068749674,-0.02569046922808519,0.11408509183944367,0.0
0.09483165679355345,-0.025325688758574577,0.11353792113517774,0.0
0.09457952911609759,-0.025303158200163628,0.11317206778193328,0.0
0.09453822309234418,-0.025418493201553014,0.11276008042813307,0.0
0.09459991390704083,-0.025304499304830946,0.11422027518990936,0.0
0.09451730185953401,-0.025313082374701784,0.11428035667900523,0.0
0.09458703930223457,-0.025340709130848543,0.11398048567539283,0.0
0.09453017646434027,-0.025404813933946363,0.11403359342021864,0.0
0.09461547072118172,-0.02548232978371737,0.11316965379353211,0.0
0.09476889309512294,-0.025420907189954187,0.11413444449120098,0.0
0.09422762325139324,-0.025294843351226254,0.11215577866503938,0.0
0.09432150057810552,-0.02548018401624966,0.11342795055245763,0.0
0.09424237540273374,-0.02545470302757061,0.11496351539653724,0.0
0.0945454650575477,-0.025078389057921056,0.1122287347589415,0.0
0.09544615095211875,-0.025256487757740947,0.11422778537604635,0.0
0.09455833966235395,-0.025396767305942453,0.11315221943285697,0.0
0.0945033543709939,-0.025392743991940497,0.11439274125012651,0.0
0.09507600606393887,-0.025485816655852398,0.11419398953842992,0.0
0.0948415809680916,-0.025510224760797593,0.11328016081811915,0.0
0.09480268893273937,-0.02531710568870374,0.1123993232726244,0.0
0.09476486978112099,-0.02529537979309318,0.11381767556878038,0.0
0.09481180844447713,-0.025466772969576477,0.11398021745445937,0.0
0.09464712079133043,-0.02535867993339061,0.11214612271143469,0.0
0.09470156964082356,-0.025296184455893572,0.11359532041493897,0.0
0.09464309747732848,-0.025308790839766365,0.11189184926651112,0.0
0.09474180278084311,-0.02523476186213039,0.1139179901978958,0.0
0.09467957552427954,-0.02537477318939843,0.1145767408104826,0.0
0.09483112035168652,-0.025216791059588323,0.11331181088826786,0.0
0.09467018779160831,-0.025339368026181225,0.11253638416962435,0.0
0.09458623463943418,-0.02538845245700508,0.11282418523123089,0.0
0.0945210569526025,-0.02517655791956877,0.11360658569414445,0.0
0.09463719661679228,-0.025318983235237985,0.11266003401995112,0.0
0.0946650915938725,-0.025417152096885696,0.11163087029825096,0.0
0.0946975463268216,-0.0251977473733124,0.11222176101467145,0.0
0.0940543525283757,-0.02522161903639067,0.11486588297675646,0.0
0.09441189103268278,-0.0253565341659229,0.1137465970214125,0.0
0.09525276365909144,-0.025302889979230164,0.11341024797084903,0.0
0.09470452007109166,-0.025234225420263462,0.11297197496556938,0.0
0.09503979623792128,-0.025193724059310446,0.112838132719771,0.0
0.0947847181301973,-0.025063100464713627,0.11152653235513359,0.0
0.0945387595342111,-0.025196406268645083,0.1143846946221226,0.0
0.09425525000754,-0.025291088258157762,0.11355428261211903,0.0
0.09505240262179407,-0.025317642130570667,0.11287219677832089,0.0
0.09495584308574713,-0.02528223696735346,0.11184651992875576,0.0
0.0947485083041797,-0.02518755497784078,0.11209301496660888,0.0
0.09451730185953401,-0.025228592780660725,0.1136135594384145,0.0
0.09475655493218361,-0.02521732750145525,0.11257313043750887,0.0
0.09480403003740669,-0.025305840409498265,0.11491952716344919,0.0
0.09472919639697032,-0.025438073329695863,0.11366022988083718,0.0
0.09451381498739898,-0.025377455398733068,0.11230008152724284,0.0
0.09420267870458111,-0.0252428084901343,0.11387856172067663,0.0
0.09456155831355552,-0.02521437707118715,0.11154128450647409,0.0
0.09507171452900345,-0.02538845245700508,0.11305002725720731,0.0
0.09492714344586652,-0.025377991840599995,0.11495064079173098,0.0
0.09466696914040675,-0.025211158419985585,0.1127155557531781,0.0
0.09476540622298792,-0.02507061065085061,0.11291698967420932,0.0
0.09460688765131088,-0.025199624919846647,0.1133136884348021,0.0
0.09479517874660238,-0.02529242936282508,0.11260585339139144,0.0
0.09501136481897411,-0.02540025417807748,0.11363394422935774,0.0
0.0945004039407258,-0.02536806766606184,0.11299155509371223,0.0
0.0945336633364753,-0.025257024199607875,0.11301623141959088,0.0
0.09462244446545177,-0.025286796723222343,0.11278556141681212,0.0
0.0949102455270583,-0.02540374105021251,0.11431656650502282,0.0
0.09474180278084311,-0.025363239689259492,0.11376885935888999,0.0
0.09472812351323646,-0.025358948154324074,0.11318279661927183,0.0
0.09446741276590977,-0.025309327281633293,0.11374820634701328,0.0
0.09484050808435775,-0.02527553144401687,0.11241380720303144,0.0
0.09450710946406239,-0.02523771229239849,0.11120976343271297,0.0
0.09446687632404284,-0.025249514013470892,0.11292181765101167,0.0
0.09516505541384881,-0.02535733882872329,0.1155450183802865,0.0
0.09486464796836948,-0.02530986372350022,0.11354891819344975,0.0
0.09476755199045563,-0.025220814373590278,0.11259056479818401,0.0
0.09488449631744579,-0.025386038468603905,0.1136320666828235,0.0
0.09485955177063367,-0.025408300806081394,0.11341373484298406,0.0
0.09488208232904462,-0.025474014934779996,0.11266057046181804,0.0
0.09475709137405054,-0.025390598224472788,0.11243446021490815,0.0
0.09467608865214451,-0.02519318761744352,0.11412478853759629,0.0
0.09456558162755747,-0.025237444071465026,0.11329544941132658,0.0
0.09482709703768456,-0.025319787898038376,0.11239771394702362,0.0
0.09431881836877089,-0.025220009710789887,0.11179716727699844,0.0
0.0943268649967748,-0.025136056558615755,0.11206592465232905,0.0
0.09526429715923038,-0.025229397443461116,0.11501662314136304,0.0
0.09483326611915423,-0.025415006329417986,0.11354596776318165,0.0
0.09458516175570032,-0.025486889539586253,0.11373211309100546,0.0
0.09491051374799177,-0.025247368246003182,0.11266968997355581,0.0
0.09446607166124245,-0.025067123778715582,0.11359317464747126,0.0
0.09494672357400936,-0.025144639628486593,0.11401240396647501,0.0
0.09493519007387043,-0.025267216595079495,0.11231966165538569,0.0
0.09474287566457697,-0.02524200382733391,0.11130632296875989,0.0
0.09466670091947328,-0.02530905906069983,0.11370770498606025,0.0
0.09472114976896641,-0.025440487318097036,0.11343304675019344,0.0
0.09437863163693329,-0.025287601386022734,0.11350627106502903,0.0
0.09489442049198395,-0.025300207769895527,0.1134644285994087,0.0
0.09506554544753379,-0.025296452676827036,0.11259458811218596,0.0
0.09490005313158668,-0.025207671547850558,0.1129223540928786,0.0
0.0948866420849135,-0.025327029863241896,0.11283276830110173,0.0
0.09491507350386065,-0.02543941443436318,0.11242024450543457,0.0
0.09482226906088222,-0.0252398580598662,0.11269651206690218,0.0
0.09473268326910535,-0.025186213873173463,0.11277966055627592,0.0
0.09479786095593702,-0.025217059280521786,0.1120286419425776,0.0
0.09477854904872764,-0.02529162470002469,0.11360712213601137,0.0
0.09464712079133043,-0.02526694837414603,0.11293388759301753,0.0
0.09463451440745764,-0.02533319894471156,0.11254496723949518,0.0
0.0946052783257101,-0.025321665444572622,0.11192457222039369,0.0
0.09474877652511317,-0.025382551596468877,0.11399657893140065,0.0
0.09489227472451624,-0.025220009710789887,0.1128920451273972,0.0
0.09483702121222272,-0.025217863943322177,0.1116512550891942,0.0
0.09467903908241261,-0.02531361881656871,0.11442278199467444,0.0
0.09485472379383132,-0.02539810841060977,0.11323375859662993,0.0
0.09479625163033624,-0.025336417595913124,0.11247737556426234,0.0
0.09482361016554954,-0.025317642130570667,0.11203025126817838,0.0
0.09486920772423836,-0.025311473049101002,0.1133684055052287,0.0
0.09471712645496445,-0.02533319894471156,0.11280058178908609,0.0
0.09462271268638524,-0.025305303967631337,0.11266539843862039,0.0
0.09475923714151825,-0.025300744211762455,0.11255784184430144,0.0
0.09482495127021685,-0.02547723358598156,0.11363260312469042,0.0
0.09479571518846931,-0.025550457900817145,0.11276464018400195,0.0
0.09493894516693892,-0.025298598444294745,0.11210749889701592,0.0
0.09486330686370216,-0.02519694271051201,0.11272896679985128,0.0
0.09465168054719932,-0.02528867426975659,0.11374418303301133,0.0
0.094602327895442,-0.02531415525843564,0.11345101755273551,0.0
0.095034431819252,-0.02528438273482117,0.1127273574742505,0.0
0.0948297792470192,-0.025136056558615755,0.11284966621990994,0.0
0.09477237996725797,-0.025192382954643128,0.1136851744276493,0.0
0.09483970342155736,-0.02537477318939843,0.11312566556044407,0.0
0.09481288132821099,-0.025287869606956198,0.11176632186965012,0.0
0.0947337561528392,-0.025186213873173463,0.11274693760239335,0.0
0.09476272401365328,-0.025193724059310446,0.11320935049168473,0.0
0.09482924280515227,-0.025140348093551174,0.11290491973220346,0.0
0.09479035076980004,-0.02520793976878402,0.11357064408906031,0.0
0.0947514587344478,-0.02521518173398754,0.11349259179742238,0.0
0.09490005313158668,-0.025328370967909214,0.11226279881749139,0.0
0.09486840306143797,-0.025291088258157762,0.11345879595980596,0.0
0.0948541873519644,-0.02528733316508927,0.11287756119699016,0.0
0.09475870069965132,-0.025189164303441564,0.11307416714121904,0.0
0.09467528398934412,-0.025322738328306477,0.1136556701249683,0.0
0.09426302841461044,-0.025254073769339774,0.11216945793264603,0.0
0.09455163413901736,-0.02517736258236916,0.1116756631941394,0.0
0.0951001459479506,-0.02518165411730458,0.11388741301148093,0.0
0.09490917264332445,-0.025245490699468937,0.11388580368588015,0.0
0.09491882859692914,-0.02533909980524776,0.11295239483742653,0.0
0.09478686389766501,-0.025394621538474743,0.11341319840111713,0.0
0.09456370408102323,-0.02527499500214994,0.11303366578026602,0.0
0.094757359594984,-0.025245222478535473,0.11232663539965575,0.0
0.09515083970437524,-0.025168243070631396,0.112694098078501,0.0
0.09483916697969043,-0.02529886666522821,0.11393381523297015,0.0
0.09478605923486462,-0.02529242936282508,0.11335258047015434,0.0
0.09485365091009747,-0.025150004047155866,0.11352451008850456,0.0
0.0948925429454497,-0.025235834745864244,0.11346711080874333,0.0
0.0948836916546454,-0.025279822978952288,0.11298940932624452,0.0
0.09478605923486462,-0.025255414874007093,0.11307792223428753,0.0
0.09484104452622467,-0.025184068105705754,0.11300121104731692,0.0
0.09486196575903484,-0.02522376480385838,0.11181621096327436,0.0
0.09473724302497423,-0.0254348546784943,0.11331046978360054,0.0
0.09478927788606618,-0.025220546152656814,0.1130331293383991,0.0
0.09477613506032646,-0.02515027226808933,0.11363689465962584,0.0
0.09484372673555931,-0.025233152536529607,0.11327667394598412,0.0
0.09484319029369238,-0.025279554758018824,0.11330430070213088,0.0
0.09442235164908787,-0.025415810992218377,0.11359827084520707,0.0
0.09401331472555575,-0.025133374349281118,0.11261497290312922,0.0
0.09482629237488417,-0.025177630803302625,0.11361919207801724,0.0
0.09553654140669601,-0.025199356698913183,0.11345369976207015,0.0
0.09484909115422858,-0.02519318761744352,0.113126202002311,0.0
