-0.04188564919062247,0.034074519166293046,0.12061895377861903,0.0
-0.04182717702712739,0.03418717195834779,0.12052212602163864,0.0
-0.04188189409755398,0.0341236035971169,0.12052829510310831,0.0
-0.04191917680730543,0.034063522108021035,0.12073133834974031,0.0
-0.04189047716742482,0.034126554027385,0.12060742027848009,0.0
-0.041850780469272195,0.03412199427151612,0.1207721079316268,0.0
-0.04187384746955007,0.03412816335298578,0.12083809028125886,0.0
-0.0419194450282389,0.034099195492171705,0.12069566496558964,0.0
-0.0419009377838299,0.03410321880617366,0.12065194495343506,0.0
-0.041884308085955155,0.03414479305086053,0.12068144925611607,0.0
-0.0418891360627575,0.03411689807378031,0.12071309932626478,0.0
-0.04187250636488275,0.0341775160047431,0.1207868600829673,0.0
-0.04185614488794147,0.03416142274873528,0.12086115728153674,0.0
-0.041897450911694875,0.03408497978269813,0.12065972336050551,0.0
-0.04192480944690817,0.034058425910285225,0.12047706490481674,0.0
-0.04188591741155594,0.03417912533034388,0.12052266246350557,0.0
-0.041916494597970796,0.03407103229415802,0.12061707623208479,0.0
-0.041893159376759456,0.03402650761920305,0.1206782306049145,0.0
-0.04181537530605499,0.034078006038428074,0.12048859840495568,0.0
-0.04189396403955985,0.0341413061787255,0.12042503004372479,0.0
-0.04193661116798057,0.034166250725537625,0.12084640513019623,0.0
-0.04192480944690817,0.034109387887643325,0.12083755383939193,0.0
-0.04189610980702756,0.03415069391139673,0.12071363576813171,0.0
-0.04192400478410778,0.03406298566615411,0.12052883154497523,0.0
-0.04192990564464398,0.034108046782976006,0.12043468599732948,0.0
-0.04192400478410778,0.03412789513205232,0.12070827134946244,0.0
-0.041949217551853366,0.03410107303870595,0.12071658619839981,0.0
-0.04194814466811951,0.034100000154972096,0.1206331694880926,0.0
-0.041922395458507,0.034142110841525894,0.12066616066290864,0.0
-0.04189906023729566,0.034159008760334106,0.12059883720860926,0.0
-0.04192936920277705,0.03408042002682925,0.12055297142898697,0.0
-0.04189128183022521,0.03412709046925193,0.12064121611609652,0.0
-0.04192615055157549,0.034066472538289136,0.12057523376646445,0.0
-0.04191542171423694,0.03411260653884489,0.12063343770902607,0.0
-0.04190442465596493,0.03411931206218148,0.12063933856956227,0.0
-0.0419009377838299,0.03409731794563746,0.1204456830556015,0.0
-0.041878407225418954,0.034089807759500476,0.12032444719367591,0.0
-0.04190415643503147,0.03407773781749461,0.12086813102580679,0.0
-0.0418979873535618,0.0340608398986864,0.12083299408352305,0.0
-0.041904692876898395,0.03404850173574707,0.12061439402275015,0.0
-0.04191381238863616,0.03410187770150634,0.12046982293961322,0.0
-0.041863923295011915,0.0340814929105631,0.12051407939363473,0.0
-0.041917031039837724,0.03410026837590556,0.12054063326604764,0.0
-0.04194975399372029,0.03415283967886444,0.120412423659852,0.0
-0.04196987056373007,0.03408551622456506,0.12052346712630596,0.0
-0.04196343326132694,0.03409597684097014,0.12065114029063467,0.0
-0.04192185901664007,0.03412279893431651,0.12052749044030792,0.0
-0.04191113017930152,0.034156058330066005,0.12058435327820222,0.0
-0.04196477436599426,0.03411287475977835,0.12057603842926484,0.0
-0.04198006295920169,0.03412199427151612,0.12043736820666412,0.0
-0.04195377730772225,0.03409275818976858,0.12057281977806328,0.0
-0.04193768405171443,0.03409248996883511,0.1206701839769106,0.0
-0.04195672773799035,0.03407720137562768,0.1205535078708539,0.0
-0.04194143914478292,0.03408793021296623,0.12057228333619635,0.0
-0.04191729926077119,0.034081761131496566,0.120460435206942,0.0
-0.041943316691317165,0.03409302641070204,0.12024880889043914,0.0
-0.04194814466811951,0.034056280142817516,0.12062244065075406,0.0
-0.0419459989006518,0.034041527991477014,0.12069727429119043,0.0
-0.04194224380758331,0.03401926565399953,0.12057362444086367,0.0
-0.041954313749589175,0.03406593609642221,0.12058971769687149,0.0
-0.041920786132906215,0.034048233514813606,0.12068547257011802,0.0
-0.04191810392357158,0.03407022763135763,0.1207173908612002,0.0
-0.04191890858637197,0.03408766199203277,0.12059320456900652,0.0
-0.04190737508623303,0.034108046782976006,0.12057362444086367,0.0
-0.041936074726113645,0.03409597684097014,0.1205231989053725,0.0
-0.04189771913262834,0.03412011672498187,0.12042020206692244,0.0
-0.04189637802796102,0.03408042002682925,0.12058569438286953,0.0
-0.04197657608706666,0.03408337045709735,0.12073321589627456,0.0
-0.04197496676146588,0.034127626911118855,0.12052266246350557,0.0
-0.0419548501914561,0.034131918446054274,0.1204987908004273,0.0
-0.041943316691317165,0.03415123035326366,0.12037165407796552,0.0
-0.04193929337731521,0.03412118960871573,0.12025390508817495,0.0
-0.041926686993442416,0.03411582519004645,0.12070451625639395,0.0
-0.04191971324917236,0.034174297353541536,0.12063075549969143,0.0
-0.041941975586649846,0.03409168530603472,0.1205164933820359,0.0
-0.041918640365438506,0.03410563279457483,0.12055189854525311,0.0
-0.041909789074634204,0.03411421586444567,0.12053741461484607,0.0
-0.041877066120751635,0.03417081048140651,0.12045426612547233,0.0
-0.04191461705143655,0.034049574619480924,0.12027455810005165,0.0
-0.04189128183022521,0.03414988924859634,0.12063209660435875,0.0
-0.04192132257477314,0.034094903957236286,0.1205527032080535,0.0
-0.041943316691317165,0.03403965044494277,0.12046204453254278,0.0
-0.04190871619090035,0.03410268236430673,0.12044326906720032,0.0
-0.041877870783552026,0.03416008164406796,0.12050978785869931,0.0
-0.041888599620890574,0.03408551622456506,0.12055377609178736,0.0
-0.04193339251677901,0.0341324548879212,0.12047894245135099,0.0
-0.04195914172639152,0.03415069391139673,0.12035207394982267,0.0
-0.041976039645199734,0.03410053659683902,0.12041805629945473,0.0
-0.04197147988933085,0.03410241414337327,0.12039954905504574,0.0
-0.04194278024945024,0.0341059010155083,0.12043870931133144,0.0
-0.04195592307518996,0.03402007031679992,0.12042958979959367,0.0
-0.04190871619090035,0.034201119446887904,0.12041725163665434,0.0
-0.04193071030744437,0.03411126543417757,0.12010611535383646,0.0
-0.041930173865577444,0.03417241980700729,0.12026517036738042,0.0
-0.041958605284524594,0.034091148864167795,0.12061814911581864,0.0
-0.04194063448198253,0.0340549390381502,0.12045614367200658,0.0
-0.04195082687745415,0.03411072899231064,0.12044300084626686,0.0
-0.04197711252893359,0.03412574936458461,0.12040464525278155,0.0
-0.041970943447463924,0.03410375524804059,0.12040920500865043,0.0
-0.04192051791197275,0.03412414003898383,0.12055431253365428,0.0
-0.04196101927292577,0.034075860270960365,0.1203917706479753,0.0
-0.04197872185453437,0.034055475480017125,0.12036843542676395,0.0
-0.041994278668675264,0.034123871818050364,0.12045507078827272,0.0
-0.04199186468027409,0.034100000154972096,0.12054492480098306,0.0
-0.04194975399372029,0.034099195492171705,0.12039901261317881,0.0
-0.04193634294704711,0.03408632088736545,0.12032203320527474,0.0
-0.04196048283105884,0.03406218100335372,0.12033168915887943,0.0
-0.0419253458887751,0.03411850739938109,0.12037835960130211,0.0
-0.04192185901664007,0.034105096352707906,0.12039257531077568,0.0
-0.041935270063313254,0.03409651328283707,0.12038399224090485,0.0
-0.04190925263276728,0.03412279893431651,0.12040518169464848,0.0
-0.04190710686529957,0.03411502052724606,0.12033168915887943,0.0
-0.04188591741155594,0.03412789513205232,0.12005756736487953,0.0
-0.041876261457951244,0.03408766199203277,0.12029950264686377,0.0
-0.041968797679996214,0.034142915504326285,0.12026490214644696,0.0
-0.04195377730772225,0.03411797095751416,0.12023512962283249,0.0
-0.041977648970800516,0.03406244922428718,0.12009350896996367,0.0
-0.04193956159824867,0.0341442566089936,0.12014608027292255,0.0
-0.04194465779598448,0.0340755920500269,0.12033544425194792,0.0
-0.04196209215665962,0.03404635596827936,0.12026517036738042,0.0
-0.0419489493309199,0.03408497978269813,0.12024263980896947,0.0
-0.04190898441183381,0.03402677584013651,0.12024290802990294,0.0
-0.04194814466811951,0.033981982944248076,0.12024880889043914,0.0
-0.04200849437814884,0.03399190711878623,0.12000821471312222,0.0
-0.04200661683161459,0.03401309657252986,0.11983065245516926,0.0
-0.041984890936004035,0.034032140258805785,0.12022037747149199,0.0
-0.04196611547066158,0.033995662211854724,0.12007822037675624,0.0
-0.04196692013346197,0.03402087497960031,0.12016431929639808,0.0
-0.04195458197052264,0.034047428852013215,0.12024478557643718,0.0
-0.041947071784385656,0.03404179621241048,0.12023995759963484,0.0
-0.041946267121585265,0.03404876995668053,0.12001036048058993,0.0
-0.0419489493309199,0.03398815202571774,0.11982984779236887,0.0
-0.041944121354117556,0.03396910833944182,0.12009967805143333,0.0
-0.04196933412186314,0.03398064183958076,0.1200666868766173,0.0
-0.041981135842935544,0.0339766185255788,0.11998219728257624,0.0
-0.04198435449413711,0.034004513502659026,0.12001116514339032,0.0
-0.04196209215665962,0.03398868846758467,0.12007875681862316,0.0
-0.041955118412389567,0.03400612282825981,0.12006802798128462,0.0
-0.041971748110264315,0.03405306149161595,0.11993955015415551,0.0
-0.041960214610125376,0.034003708839858635,0.1197764718266096,0.0
-0.04202002787828778,0.03397447275811109,0.1202040159945507,0.0
-0.042069648750978565,0.03395381974623439,0.12022386434362702,0.0
-0.042058651692706554,0.03400826859572752,0.1200991416095664,0.0
-0.04205677414617231,0.034014705898130645,0.1201117479934392,0.0
-0.042048459297234934,0.03396964478130875,0.12008599878382668,0.0
-0.042057310588039236,0.03395381974623439,0.11990065811880328,0.0
-0.04202566051789052,0.034035090689073885,0.11995322942176216,0.0
-0.04202780628535823,0.03400719571199366,0.11998756170124551,0.0
-0.04209915305365957,0.03402087497960031,0.1199883663640459,0.0
-0.042072599181246666,0.034083102236163884,0.11992050646787959,0.0
-0.04209539796059108,0.03398600625825003,0.1199382090494882,0.0
-0.0420752813905813,0.033991370676919305,0.11995457052642948,0.0
-0.04209754372805879,0.03401551056093104,0.11998219728257624,0.0
-0.04213348533314292,0.033953551525300926,0.11991326450267607,0.0
-0.04211175943753236,0.03400612282825981,0.11986230252531797,0.0
-0.042090033541921805,0.034049038177614,0.1197099530351106,0.0
-0.04207447672778091,0.03404930639854746,0.11968474026736502,0.0
-0.042089228879121414,0.03400183129332439,0.12004844785314177,0.0
-0.04209754372805879,0.03393289851342422,0.12007044196968579,0.0
-0.04208145047205097,0.033968840118508356,0.12003503680646858,0.0
-0.04209861661179264,0.034001026630524,0.11997495531737272,0.0
-0.04209030176285527,0.03400719571199366,0.11990950940960758,0.0
-0.04213187600754214,0.03394282268796238,0.11980409858275635,0.0
-0.042110418332865045,0.03397715496744573,0.11989368437453322,0.0
-0.04208171869298443,0.033989224909451596,0.11987142203705574,0.0
-0.04208305979765175,0.033996466874655115,0.11991245983987568,0.0
-0.04209137464658912,0.033991370676919305,0.11990307210720445,0.0
-0.04209754372805879,0.03398010539771383,0.11988697885119663,0.0
-0.0420723309603132,0.03403830934027545,0.11990897296774065,0.0
-0.0420693805300451,0.03399673509558858,0.11988510130466239,0.0
-0.04208681489072024,0.03396025704863752,0.1198893928395978,0.0
-0.04210693146073002,0.03397179054877646,0.11992801665401658,0.0
-0.04212731625167326,0.03392163323421875,0.11989717124666825,0.0
-0.0421291937982075,0.03388730095473539,0.119961812491633,0.0
-0.042032366041227114,0.03392324255981953,0.1199854159337778,0.0
-0.042092179309389514,0.03398386049078232,0.11951844328861753,0.0
-0.04214528705421532,0.033968840118508356,0.11950369113727703,0.0
-0.04214340950768108,0.03390527175727746,0.12019167783161137,0.0
-0.04214931036821728,0.033916000594616004,0.12001760244579344,0.0
-0.04214850570541689,0.03395247864156707,0.11999292611991479,0.0
-0.042159234542755435,0.03392753409475495,0.11996690868936881,0.0
-0.04215601589155387,0.03390527175727746,0.11992399334001462,0.0
-0.042135899321544094,0.03399244356065316,0.11992962597961736,0.0
-0.04212382937953823,0.033940408699561206,0.11986391185091876,0.0
-0.042147701042616496,0.033962134595171764,0.11974589464019474,0.0
-0.04216674472889242,0.03392297433888607,0.11999963164325138,0.0
-0.04210156704206074,0.033920560350484893,0.11997468709643926,0.0
-0.04208815599538756,0.03394791888569819,0.11991433738640993,0.0
-0.04206401611137583,0.0339951257699878,0.11992211579348037,0.0
-0.04207742715804901,0.03396347569983908,0.1198864424093297,0.0
-0.04212838913540711,0.03399485754905433,0.11966167326708714,0.0
-0.04209781194899225,0.03401926565399953,0.11957476968464491,0.0
-0.04209539796059108,0.03395140575783322,0.12003557324833551,0.0
-0.04208305979765175,0.0340039770607921,0.11994598745655864,0.0
-0.04209834839085918,0.034001563072390925,0.11997254132897155,0.0
-0.04208547378605292,0.03401416945626372,0.1198687398277211,0.0
-0.042067502983510856,0.03399110245598584,0.11976225611713602,0.0
-0.04215252901941884,0.033979032513979976,0.11996556758470149,0.0
-0.04215226079848538,0.034055475480017125,0.11990092633973674,0.0
-0.04212463404233862,0.03402328896800148,0.11973328825632194,0.0
-0.04209620262339147,0.03396669435104065,0.11991326450267607,0.0
-0.04212704803073979,0.033997271537455506,0.11987973688599311,0.0
-0.042069648750978565,0.033999417304923216,0.11956162685890519,0.0
-0.042070453413778956,0.034040186886809695,0.11980758545489138,0.0
-0.04208547378605292,0.03399619865372165,0.12001974821326115,0.0
-0.042060797460174264,0.03407183695695841,0.11975876924500099,0.0
-0.04208386446045214,0.0340069274910602,0.11991728781667803,0.0
-0.04208627844885331,0.03397769140931266,0.1198931479326663,0.0
-0.04203209782029365,0.03404260087521087,0.11980865833862524,0.0
-0.04207447672778091,0.03403026271227154,0.11979524729195205,0.0
-0.04207850004178287,0.03401953387493299,0.11974964973326323,0.0
-0.04207957292551672,0.03399002957225199,0.11975957390780138,0.0
-0.042070453413778956,0.034006659270126735,0.11973275181445502,0.0
-0.04209325219312337,0.03396106171143791,0.11952139371888564,0.0
-0.04208171869298443,0.03393799471116003,0.11974294420992664,0.0
-0.04206213856484158,0.033992711781586624,0.11994276880535708,0.0
-0.04203370714589443,0.03406244922428718,0.11959461803372122,0.0
-0.042038266901763315,0.03398734736291735,0.11974964973326323,0.0
-0.04210290814672806,0.03401819277026567,0.11996798157310266,0.0
-0.04208842421632102,0.03402007031679992,0.11981294987356066,0.0
-0.04209539796059108,0.03403187203787232,0.11968769069763312,0.0
-0.04204792285536801,0.03395221042063361,0.11976574298927105,0.0
-0.04209754372805879,0.03392002390861796,0.11974857684952937,0.0
-0.04208949710005488,0.034002904177058244,0.11976413366367027,0.0
-0.042127852693540184,0.034000758409590534,0.11971022125604407,0.0
-0.0421173920771351,0.03397876429304651,0.1196715974416253,0.0
-0.04212597514700594,0.034002367735191316,0.11976440188460373,0.0
-0.04212302471673784,0.03401148724692908,0.11977888581501077,0.0
-0.04211819673993549,0.03398520159544964,0.11977030274513993,0.0
-0.04209754372805879,0.033998612642122825,0.11975233194259786,0.0
-0.04213777686807834,0.03391492771088215,0.11961205239439636,0.0
-0.04213643576341102,0.03398815202571774,0.11961929435959988,0.0
-0.04209030176285527,0.034059767014952544,0.11972443696551764,0.0
-0.0421321442284756,0.033959988827704055,0.1196530901972163,0.0
-0.04210344458859499,0.03396320747890562,0.11983816264130624,0.0
-0.04208735133258717,0.03393343495529115,0.11955653066116938,0.0
-0.04210585857699616,0.03398171472331461,0.11964960332508127,0.0
-0.04214743282168303,0.034008805037594445,0.12006749153941769,0.0
-0.042130803123808284,0.03396910833944182,0.11971343990724563,0.0
-0.04211068655379851,0.03396642613010718,0.11964906688321435,0.0
-0.0421203425074032,0.033998612642122825,0.11964021559241005,0.0
-0.042117660298068564,0.03393289851342422,0.11966435547642178,0.0
-0.042085742006986386,0.03398573803731657,0.11976574298927105,0.0
-0.04209781194899225,0.033913050164347903,0.11978988287328278,0.0
-0.0421173920771351,0.03391197728061405,0.11969251867443546,0.0
-0.04206777120444432,0.033999417304923216,0.11972658273298535,0.0
-0.04206616187884354,0.03396964478130875,0.11971907254684837,0.0
-0.04216057564742275,0.033909563292212876,0.11966623302295602,0.0
-0.042153333682219234,0.03394094514142813,0.11967427965095993,0.0
-0.04211363698406661,0.03402892160760422,0.11964450712734546,0.0
-0.04214850570541689,0.0339471142228978,0.1196206354642672,0.0
-0.04211900140273588,0.0339707176650426,0.11941303246176631,0.0
-0.042136703984344485,0.03401792454933221,0.11953560942835921,0.0
-0.04212114717020359,0.03400317239799171,0.11947043174152754,0.0
-0.042050605064702644,0.033981982944248076,0.11982636092023384,0.0
-0.04205677414617231,0.03394952821129897,0.11960051889425742,0.0
-0.04211363698406661,0.033996466874655115,0.11945031517151776,0.0
-0.04213187600754214,0.03396240281610523,0.11962331767360183,0.0
-0.042119806065536274,0.03397715496744573,0.11967937584869574,0.0
-0.04213133956567521,0.033959184164903664,0.11960937018506172,0.0
-0.04211953784460281,0.033976082083711875,0.11957476968464491,0.0
-0.042111222995665436,0.03396857189757489,0.11951012843968016,0.0
-0.04209700728619186,0.03395837950210327,0.11958093876611457,0.0
-0.042077695378982476,0.03398466515358271,0.11963672872027502,0.0
-0.04210693146073002,0.03401443767719718,0.11949483984647273,0.0
-0.042107467902596944,0.03398573803731657,0.11944736474124966,0.0
-0.042117660298068564,0.03392297433888607,0.11956645483570753,0.0
-0.04210585857699616,0.03395328330436746,0.11943314903177608,0.0
-0.042081182251117503,0.03404501486361204,0.11950422757914396,0.0
-0.042111222995665436,0.03405091572414824,0.11946318977632402,0.0
-0.04210639501886309,0.03405708480561791,0.11948786610220268,0.0
-0.04211202765846583,0.03401202368879601,0.11948116057886608,0.0
-0.04212838913540711,0.03398520159544964,0.11941571467110094,0.0
-0.04213107134474175,0.03403830934027545,0.11935482851920469,0.0
-0.0421114912165989,0.03407720137562768,0.11906649101573122,0.0
-0.04211175943753236,0.03404421020081165,0.11944656007844927,0.0
-0.04214206840301376,0.03403240847973925,0.11953024500968994,0.0
-0.04214287306581415,0.034064326770821426,0.1193296157514591,0.0
-0.04213241244940907,0.03408497978269813,0.11893023478153167,0.0
-0.04212248827487091,0.034043137317077796,0.11949779027674083,0.0
-0.042121415391137056,0.03408363867803081,0.11955089802156664,0.0
-0.0421026399257946,0.034126554027385,0.11943931811324575,0.0
-0.04214233662394722,0.034016851665598355,0.11935160986800313,0.0
-0.04213187600754214,0.03413030912045349,0.1193333708445276,0.0
-0.04211605097246778,0.034123871818050364,0.11939479343829078,0.0
-0.04209995771645996,0.03411099721324411,0.11936394803094245,0.0
-0.042119806065536274,0.03409973193403863,0.11922903290141022,0.0
-0.04214045907741298,0.034057621247484834,0.1192963563557096,0.0
-0.042111222995665436,0.03410670567830869,0.11924593082021843,0.0
-0.04214635993794918,0.03410053659683902,0.11959649558025547,0.0
-0.04214233662394722,0.03411046077137718,0.11938218705441798,0.0
-0.042111222995665436,0.03412869979485271,0.11941571467110094,0.0
-0.04210800434446387,0.03411984850404841,0.11948491567193457,0.0
-0.04215601589155387,0.03413165022512081,0.11951737040488368,0.0
-0.04215869810088851,0.03403160381693886,0.11932049623972134,0.0
-0.042128657356340575,0.03406298566615411,0.11929501525104229,0.0
-0.04213053490287482,0.03405172038694863,0.11933229796079374,0.0
-0.04213777686807834,0.03408042002682925,0.11932612887932408,0.0
-0.042144750612348396,0.03407907892216193,0.11932559243745715,0.0
-0.0421772053452975,0.03402221608426763,0.11926551094836128,0.0
-0.04218444731050102,0.03403401780534003,0.11928777328583877,0.0
-0.04214448239141493,0.03414559771366092,0.11932398311185637,0.0
-0.042151187914751524,0.034108583224842934,0.1193384670422634,0.0
-0.04215735699622119,0.03405306149161595,0.11928214064623603,0.0
-0.042144750612348396,0.034066472538289136,0.11926282873902665,0.0
-0.04212222005393745,0.03409651328283707,0.11927919021596793,0.0
-0.0421565523334208,0.03406325388708757,0.1192137443082028,0.0
-0.042154943007820016,0.03403160381693886,0.11924888125048654,0.0
-0.04214501883328186,0.0340187292121326,0.11898870694502675,0.0
-0.042127852693540184,0.03403911400307584,0.11898629295662558,0.0
-0.042181765101166384,0.03402355718893495,0.1194138371245667,0.0
-0.04216754939169281,0.034042332654277405,0.11945407026458625,0.0
-0.04217398669409594,0.03407398272442612,0.11937896840321642,0.0
-0.04216889049636013,0.03403884578214238,0.11926631561116167,0.0
-0.04220322277584348,0.0340275805029369,0.11916197766804429,0.0
-0.04220966007824661,0.03397474097904456,0.11933793060039648,0.0
-0.042191421054771076,0.03395381974623439,0.11918289890085446,0.0
-0.04214072729834644,0.034073714503492655,0.1190533481899915,0.0
-0.042153333682219234,0.03402865338667076,0.11908473003920675,0.0
-0.04214206840301376,0.03407049585229109,0.11912710894669401,0.0
-0.0421742549150294,0.034009609700394836,0.11912684072576055,0.0
-0.04217693712436404,0.034020606758666846,0.11932854286772525,0.0
-0.042110418332865045,0.03407210517789187,0.11922527780834173,0.0
-0.042151992577551915,0.03405225682881556,0.11896537172381541,0.0
-0.04216620828702549,0.034064863212688354,0.11880551204747106,0.0
-0.042166476507958954,0.03404340553801126,0.11932291022812251,0.0
-0.04215172435661845,0.03404555130547897,0.1192845546346372,0.0
-0.04216111208928968,0.033993516444387015,0.11912871827229479,0.0
-0.04217398669409594,0.033992175339719696,0.11920140614526345,0.0
-0.04217479135689633,0.03401524233999757,0.11936931244961173,0.0
-0.04215762521715465,0.03401819277026567,0.11920784344766659,0.0
-0.042141800182080295,0.033987079141983886,0.11894150006073714,0.0
-0.04213348533314292,0.03396240281610523,0.1190171383639739,0.0
-0.042161380310223144,0.03394282268796238,0.11909519065561183,0.0
-0.04221717026438359,0.034002367735191316,0.11911584366748854,0.0
-0.0421742549150294,0.03404286909614433,0.11904127824798563,0.0
-0.04219249393850493,0.034026239398269584,0.1190023862126334,0.0
-0.042178278229031356,0.0340039770607921,0.11888624654844362,0.0
-0.04216406251955778,0.034049574619480924,0.1188191913150777,0.0
-0.04215601589155387,0.03402650761920305,0.11914615263296993,0.0
-0.04214957858915074,0.03397179054877646,0.11912308563269206,0.0
-0.04212973024007443,0.03403562713094081,0.11896510350288195,0.0
-0.042160039205555826,0.03400317239799171,0.11886666642030078,0.0
-0.04214367772861454,0.03405172038694863,0.11868615373207972,0.0
-0.042137508647144876,0.03404206443334394,0.11886854396683502,0.0
-0.04216486718235817,0.03400719571199366,0.11918611755205602,0.0
-0.04215467478688655,0.034024898293602265,0.11902652609664513,0.0
-0.04217398669409594,0.033984128711715786,0.11892728435126357,0.0
-0.0421506514728846,0.03405279327068249,0.11899460780556295,0.0
-0.04214448239141493,0.03404125977054355,0.11890716778125379,0.0
-0.04215467478688655,0.03403965044494277,0.11881087646614033,0.0
-0.04214501883328186,0.03397581386277841,0.11895169245620876,0.0
-0.04210585857699616,0.033938799373960424,0.11897744166582128,0.0
-0.0421565523334208,0.03399888086305629,0.11890877710685457,0.0
-0.04214072729834644,0.034066472538289136,0.11890180336258452,0.0
-0.042126511588872866,0.03401819277026567,0.11888302789724206,0.0
-0.042154943007820016,0.0340844433408312,0.11891145931618921,0.0
-0.042162184973023535,0.03407773781749461,0.11892567502566279,0.0
-0.042162989635823926,0.03403965044494277,0.11889482961831446,0.0
-0.04215011503101767,0.03402811694480383,0.11886693464123424,0.0
-0.042126511588872866,0.03409248996883511,0.11882080064067849,0.0
-0.04213536287967717,0.03406539965455528,0.11856277210268643,0.0
-0.04211792851900203,0.03406030345681947,0.11889187918804636,0.0
-0.04215306546128577,0.03399083423505238,0.11910189617894842,0.0
-0.0421565523334208,0.03404501486361204,0.11883823500135363,0.0
-0.04216406251955778,0.034031335596005394,0.11880390272187027,0.0
-0.04215762521715465,0.034021947863334165,0.11887122617616966,0.0
-0.042105322135129235,0.034004513502659026,0.11882750616401508,0.0
-0.042103176367661525,0.03402355718893495,0.11883903966415402,0.0
-0.04214850570541689,0.03402543473546919,0.11885030494335949,0.0
-0.04212517048420555,0.034058425910285225,0.11874650344210905,0.0
-0.042115514530600855,0.034008805037594445,0.11878110394252586,0.0
-0.04219544436877303,0.03400531816545942,0.11896778571221658,0.0
-0.04218096043836599,0.03401202368879601,0.11893211232806591,0.0
-0.042140995519279904,0.03399190711878623,0.1189329169908663,0.0
-0.042208855415446216,0.034032140258805785,0.11888919697871173,0.0
-0.042196517252506886,0.03400263595612478,0.11889348851364714,0.0
-0.04215521122875348,0.03404474664267858,0.11895383822367647,0.0
-0.042151992577551915,0.03401443767719718,0.11892004238606005,0.0
-0.04212248827487091,0.03406620431735567,0.11888597832751016,0.0
-0.0421291937982075,0.03405011106134785,0.11899782645676452,0.0
-0.042148237484483424,0.034029189828537684,0.11905415285279189,0.0
-0.042162184973023535,0.03401738810746528,0.11896966325875083,0.0
-0.042143141286747614,0.03406405854988796,0.11888919697871173,0.0
-0.04213428999594331,0.034041527991477014,0.11884842739682525,0.0
-0.042103176367661525,0.03409865905030478,0.11839969377514051,0.0
-0.04218069221743253,0.03403830934027545,0.11861695273124609,0.0
-0.04215038325195113,0.03407049585229109,0.1193923794498896,0.0
-0.04215762521715465,0.034083906898964275,0.11901982057330854,0.0
-0.04213241244940907,0.03411126543417757,0.11895759331674496,0.0
-0.042114441646867,0.03409973193403863,0.11901365149183887,0.0
-0.04217076804289437,0.0340844433408312,0.11893506275833401,0.0
-0.04214743282168303,0.03412226249244958,0.11894471871193871,0.0
-0.042128657356340575,0.034064326770821426,0.11894579159567256,0.0
-0.04214716460074957,0.03409812260843785,0.11893747674673519,0.0
-0.042211805845714316,0.0340334813634731,0.11884091721068826,0.0
-0.04216701294982588,0.03407827425936154,0.11889080630431251,0.0
-0.042130803123808284,0.0340549390381502,0.11887632237390547,0.0
-0.042070453413778956,0.03403911400307584,0.1189219199325943,0.0
-0.042058651692706554,0.03402382540986841,0.11888731943217748,0.0
-0.04216272141489046,0.03403830934027545,0.11881355867547497,0.0
-0.04213777686807834,0.03409275818976858,0.1186102472079095,0.0
-0.04214716460074957,0.03408229757336349,0.11890394913005223,0.0
-0.04215816165902158,0.03412145782964919,0.11911798943495625,0.0
-0.04213563110061063,0.03401953387493299,0.11874703988397597,0.0
-0.04213187600754214,0.03407425094535958,0.11877305731452195,0.0
-0.042111222995665436,0.0340726416197588,0.11894150006073714,0.0
-0.042123561158604765,0.033955697292768636,0.11884252653628904,0.0
-0.04211712385620164,0.03407639671282729,0.11889107452524597,0.0
-0.04214662815888264,0.03410751034110908,0.11882562861748083,0.0
-0.04214448239141493,0.03406030345681947,0.11871002539515799,0.0
-0.042147701042616496,0.03403321314253964,0.11864699347579402,0.0
-0.0421536019031527,0.03412601758551807,0.11893935429326943,0.0
-0.04217345025222901,0.03408873487576662,0.1190348409455825,0.0
-0.0421595027636889,0.03401631522373143,0.11890207158351798,0.0
-0.04215682055435426,0.03401202368879601,0.11867837532500927,0.0
-0.04219544436877303,0.03405172038694863,0.11864592059206017,0.0
-0.042180423996499065,0.034040186886809695,0.11835007290244973,0.0
-0.04220831897357929,0.03403750467747506,0.11865638120846525,0.0
-0.042219852473718227,0.033988420246651205,0.11892352925819508,0.0
-0.0422134151713151,0.034046624189212824,0.11880122051253564,0.0
-0.042216902043450126,0.034063522108021035,0.11869607790661788,0.0
-0.042224948671454036,0.034051183945081706,0.1185319266953381,0.0
-0.04219007995010376,0.03407237339882534,0.11872155889529692,0.0
-0.0421350946587437,0.03402087497960031,0.1187652789074515,0.0
-0.042169426938227055,0.03397715496744573,0.11869822367408558,0.0
-0.04217049982196091,0.03405011106134785,0.11885003672242603,0.0
-0.04215682055435426,0.03401658344466489,0.11892889367686435,0.0
-0.0421860566361018,0.034020606758666846,0.11856411320735374,0.0
-0.04222307112491979,0.03394282268796238,0.11849142533438509,0.0
-0.04220241811304309,0.03397876429304651,0.11868910416234782,0.0
-0.042198663019974596,0.03401819277026567,0.11836106996072174,0.0
-0.04216996338009398,0.03404769707294668,0.11847399097370995,0.0
-0.042183374426767166,0.03403616357280774,0.11881731376854346,0.0
-0.04216567184515856,0.034029994491338075,0.11877305731452195,0.0
-0.04221448805504895,0.03392833875755534,0.1186405561733909,0.0
-0.042197858357174205,0.03398600625825003,0.11871351226729301,0.0
-0.04215252901941884,0.034006659270126735,0.11869339569728324,0.0
-0.042174523135962864,0.03404769707294668,0.11859334928910129,0.0
-0.04221502449691588,0.03402945804947115,0.11852709871853576,0.0
-0.04218739774076912,0.03404367375894472,0.11873899325597206,0.0
-0.04216459896142471,0.034063522108021035,0.11866737826673726,0.0
-0.04218096043836599,0.034026239398269584,0.11848337870638118,0.0
-0.042168622275426663,0.034035895351874276,0.11854050976520894,0.0
-0.04212302471673784,0.03409731794563746,0.11873443350010318,0.0
-0.04216594006609203,0.034057621247484834,0.11837957720513073,0.0
-0.042177473566230965,0.03398171472331461,0.11855740768401715,0.0
-0.04220966007824661,0.03398091006051422,0.11881221757080765,0.0
-0.042184715531434484,0.03403562713094081,0.11859147174256704,0.0
-0.04213938619367912,0.03404796529388014,0.11861078364977642,0.0
-0.0421595027636889,0.03404501486361204,0.11862607224298385,0.0
-0.042221193578385545,0.03401926565399953,0.11878217682625972,0.0
-0.04218096043836599,0.03401792454933221,0.11868883594141436,0.0
-0.042081182251117503,0.03398493337451618,0.11849813085772168,0.0
-0.04217210914756169,0.034013901235330254,0.11856196743988603,0.0
-0.0421860566361018,0.03400344061892517,0.1185445330792109,0.0
-0.0421890070663699,0.034012560130662936,0.11854909283507978,0.0
-0.04216030742648929,0.03404555130547897,0.11862124426618151,0.0
-0.04212195183300398,0.03404876995668053,0.11861829383591341,0.0
-0.04214153196114683,0.03403267670067271,0.11852978092787039,0.0
-0.042176668903430574,0.03406700898015606,0.1182387612150623,0.0
-0.042183374426767166,0.03404501486361204,0.11846057992703676,0.0
-0.04217505957782979,0.03408793021296623,0.11863116844071966,0.0
-0.04219893124090806,0.034016851665598355,0.11867757066220888,0.0
-0.042166476507958954,0.03399324822345355,0.11862231714991536,0.0
-0.04213938619367912,0.03403670001467467,0.11846943121784106,0.0
-0.042187665961702585,0.033991370676919305,0.1185496292769467,0.0
-0.04216754939169281,0.03396642613010718,0.11858476621923045,0.0
-0.042196517252506886,0.033948455327565116,0.1185024223926571,0.0
-0.04220027234557538,0.03403240847973925,0.11849974018332246,0.0
-0.042162184973023535,0.034031335596005394,0.11849893552052207,0.0
-0.04211712385620164,0.03404421020081165,0.11847425919464341,0.0
-0.04216191675209007,0.03396562146730679,0.118451460415299,0.0
-0.042162184973023535,0.03407693315469422,0.11853729111400738,0.0
-0.04217801000809789,0.03408202935243003,0.11843831758955928,0.0
-0.04214743282168303,0.034075860270960365,0.11846406679917179,0.0
-0.04215735699622119,0.034024093630801874,0.11840908150781174,0.0
-0.0421654036242251,0.0340128283515964,0.11864967568512866,0.0
-0.04216406251955778,0.034007463932927126,0.11847077232250838,0.0
-0.042125706926072475,0.034020606758666846,0.11848498803198196,0.0
-0.04209700728619186,0.03399700331652204,0.11837421278646146,0.0
-0.04220697786891197,0.03398493337451618,0.11834417204191353,0.0
-0.042179619333698674,0.03397930073491344,0.11856599075388799,0.0
-0.04219463970597264,0.034021143200533774,0.11853380424187235,0.0
-0.04218203332209985,0.03401551056093104,0.11847560029931073,0.0
-0.04218069221743253,0.03398520159544964,0.1184780142877119,0.0
-0.042152797240352306,0.034029994491338075,0.11847533207837727,0.0
-0.042173182031295546,0.0340098779213283,0.11845870238050252,0.0
-0.04217398669409594,0.03400504994452595,0.11840908150781174,0.0
-0.04216191675209007,0.034003708839858635,0.11822481372652219,0.0
-0.04214045907741298,0.03400504994452595,0.11811216093446744,0.0
-0.04216969515916052,0.03401336479346333,0.11841310482181369,0.0
-0.042168085833559736,0.033962134595171764,0.11855204326534788,0.0
-0.042169426938227055,0.03398734736291735,0.11853031736973732,0.0
-0.04215735699622119,0.03397581386277841,0.1184249065428861,0.0
-0.04216191675209007,0.03400800037479405,0.11845467906650056,0.0
-0.04212731625167326,0.033989224909451596,0.11838467340286654,0.0
-0.042092179309389514,0.03394309090889584,0.11847050410157492,0.0
-0.04209486151872415,0.03396964478130875,0.11855472547468252,0.0
-0.04212704803073979,0.0339736680953107,0.11852119785799956,0.0
-0.04210666323979655,0.034014705898130645,0.11851449233466296,0.0
-0.04207152629751281,0.03402033853773338,0.1183436356000466,0.0
-0.0421321442284756,0.03396696257197411,0.11841981034515028,0.0
-0.042135899321544094,0.033973131653443775,0.11841846924048297,0.0
-0.04211792851900203,0.03400531816545942,0.11835758308858671,0.0
-0.0421085407863308,0.03399458932812087,0.11836589793752408,0.0
-0.042113368763133145,0.03401551056093104,0.11836267928632252,0.0
-0.042100225937393425,0.03398466515358271,0.11831761816950062,0.0
-0.042080645809250576,0.03401014614226176,0.11840854506594481,0.0
-0.04216164853115661,0.033946846001964334,0.11827362993641258,0.0
-0.04212463404233862,0.03398868846758467,0.11803518152656334,0.0
-0.042095129739657615,0.03402597117733612,0.1183760903329957,0.0
-0.04213616754247756,0.033973131653443775,0.11853112203253771,0.0
-0.04217398669409594,0.033931557408756904,0.11838628272846732,0.0
-0.042162184973023535,0.033962939257972155,0.11849088889251816,0.0
-0.04215869810088851,0.033935312501825396,0.11845172863623246,0.0
-0.042129462019140966,0.03402302074706802,0.11835463265831861,0.0
-0.042149042147283815,0.03393558072275886,0.11830635289029515,0.0
-0.04213992263554605,0.03394309090889584,0.11835597376298593,0.0
-0.04211497808873393,0.03400049018865707,0.1183465860303147,0.0
-0.04211524630966739,0.03400263595612478,0.11825109937800163,0.0
-0.04212597514700594,0.03399083423505238,0.11833961228604464,0.0
-0.042154943007820016,0.03390607642007785,0.11830769399496247,0.0
-0.04214743282168303,0.03397715496744573,0.11832915166963956,0.0
-0.04216459896142471,0.033927265873821486,0.11844287734542816,0.0
-0.04215682055435426,0.033953015083434,0.11843322139182347,0.0
-0.042143141286747614,0.033955697292768636,0.11837206701899375,0.0
-0.04212812091447365,0.033926461211021094,0.11838440518193308,0.0
-0.042119269623669346,0.033955697292768636,0.11835087756525012,0.0
-0.04214367772861454,0.03397286343251031,0.11831815461136755,0.0
-0.042156284112487334,0.033925120106353776,0.11834014872791157,0.0
-0.04211095477473197,0.03393048452502305,0.11799065685160837,0.0
-0.04212195183300398,0.033948991769432044,0.11820281960997817,0.0
-0.04216969515916052,0.03398225116518154,0.11877868995412469,0.0
-0.042112564100332754,0.03402302074706802,0.11841605525208179,0.0
-0.04215226079848538,0.03391063617594673,0.11818940856330498,0.0
-0.04214448239141493,0.033999417304923216,0.1183347843092423,0.0
-0.04210156704206074,0.03403777289840852,0.11831681350670023,0.0
-0.042143945949548005,0.034001026630524,0.1183103762042971,0.0
-0.04216191675209007,0.03402892160760422,0.1182956240529566,0.0
-0.042127852693540184,0.034024898293602265,0.1182476125058666,0.0
-0.04210478569326231,0.034016851665598355,0.11829428294828928,0.0
-0.042099421274593034,0.03406405854988796,0.11833129743710727,0.0
-0.04214743282168303,0.033938262932093496,0.11828060368068263,0.0
-0.0421506514728846,0.03397259521157685,0.1182092569123813,0.0
-0.0421262433679394,0.03403777289840852,0.11800031280521306,0.0
-0.0421291937982075,0.03399083423505238,0.11840478997287632,0.0
-0.0421291937982075,0.03394791888569819,0.11844985108969822,0.0
-0.04214206840301376,0.033960793490504446,0.11833237032084112,0.0
-0.04215226079848538,0.03398573803731657,0.11825834134320515,0.0
-0.04213026668194136,0.033990566014118914,0.11828221300628342,0.0
-0.04215091969381806,0.03396106171143791,0.11827014306427755,0.0
-0.0421565523334208,0.03396991300224221,0.11822883704052414,0.0
-0.0421506514728846,0.03400719571199366,0.11813227750447722,0.0
-0.04214582349608225,0.03401953387493299,0.11797214960719937,0.0
-0.042165135403291636,0.03393987225769428,0.1183908424843362,0.0
-0.042139654414612586,0.03394630956009741,0.11839969377514051,0.0
-0.042089228879121414,0.03392029212955143,0.11824814894773353,0.0
-0.042142604844880686,0.034027044061069975,0.11842383365915224,0.0
-0.042160039205555826,0.03404769707294668,0.11847264986904263,0.0
-0.042160039205555826,0.034022752526134556,0.11820496537744588,0.0
-0.0421595027636889,0.033970985885976065,0.1177414796044206,0.0
-0.04213938619367912,0.034029994491338075,0.1182623646572071,0.0
-0.04213053490287482,0.034016851665598355,0.11832673768123839,0.0
-0.042120610728336665,0.03401229190972947,0.11831198552989788,0.0
-0.04211310054219968,0.03399083423505238,0.11823956587786269,0.0
-0.04210049415832689,0.03398439693264925,0.1181212804462052,0.0
-0.04206696654164393,0.03392404722261992,0.11811859823687057,0.0
-0.04203156137842672,0.03393343495529115,0.11812315799273945,0.0
-0.04212812091447365,0.033914659489948686,0.11815722205128934,0.0
-0.04214850570541689,0.03395140575783322,0.11811484314380208,0.0
-0.04212999846100789,0.03397420453717763,0.11810894228326588,0.0
-0.04211524630966739,0.033926461211021094,0.11805717564310736,0.0
-0.042131607786608676,0.03389588402460623,0.11811269737633437,0.0
-0.04214796926354996,0.03394738244383126,0.11803571796843026,0.0
-0.04214662815888264,0.03398868846758467,0.11793164824624636,0.0
-0.04212892557727404,0.03388730095473539,0.11821113445891554,0.0
-0.04211068655379851,0.03393263029249076,0.11821837642411906,0.0
-0.04210505391419577,0.03397205876970992,0.11817251064449677,0.0
-0.04212543870513901,0.03390929507127941,0.11814354278368269,0.0
-0.04213643576341102,0.033902857768876284,0.11811162449260051,0.0
-0.04209137464658912,0.03397795963024612,0.1180679044804459,0.0
-0.04210719968166348,0.03390044378047511,0.11792440628104284,0.0
-0.04211229587939929,0.033918951024884104,0.11797536825840094,0.0
-0.04212302471673784,0.033921365013285285,0.1183192274951014,0.0
-0.04213026668194136,0.03392833875755534,0.11822186329625409,0.0
-0.042092983972189905,0.033950601095032826,0.11812691308580794,0.0
-0.04204819107630147,0.03398466515358271,0.11815427162102124,0.0
-0.042130803123808284,0.03387952254766494,0.1180952630156592,0.0
-0.042128657356340575,0.033948991769432044,0.11811457492286861,0.0
-0.042092179309389514,0.033954892629968245,0.11823071458705839,0.0
-0.042115514530600855,0.03391358660621483,0.11826477864560828,0.0
-0.04212248827487091,0.0338561873264536,0.11815373517915431,0.0
-0.04212302471673784,0.03387684033833031,0.11807434178284903,0.0
-0.042138045089011804,0.03386181996605634,0.11799977636334613,0.0
-0.04211497808873393,0.03382882879124031,0.1180952630156592,0.0
-0.042087887774454096,0.033937458269293105,0.1181456885511504,0.0
-0.04212677980980633,0.03382909701217377,0.11809338546912496,0.0
-0.0421114912165989,0.03382990167497416,0.11803437686376295,0.0
-0.04209191108845605,0.03386637972192522,0.11768568965026016,0.0
-0.04208869243725449,0.03380629823282936,0.11830501178562783,0.0
-0.042138045089011804,0.033838484744845,0.11857162339349073,0.0
-0.04213133956567521,0.03383714364017768,0.11811430670193515,0.0
-0.04213777686807834,0.03381461308176673,0.11803893661963183,0.0
-0.04212973024007443,0.0338473360356493,0.1181065282948647,0.0
-0.04211390520500007,0.033860747082322486,0.11809311724819149,0.0
-0.04212597514700594,0.033841703396046564,0.11805798030590775,0.0
-0.04209915305365957,0.03387335346619528,0.1181574902722228,0.0
-0.04208654666978678,0.03386047886138902,0.11817546107476487,0.0
-0.0421055903560627,0.03387415812899567,0.11792708849037747,0.0
-0.042136703984344485,0.03383285210524226,0.11798958396787451,0.0
-0.04215252901941884,0.0337934236280231,0.11806441760831088,0.0
-0.042136703984344485,0.03383338854710919,0.11808560706205451,0.0
-0.04211310054219968,0.03384921358218355,0.11785520528020921,0.0
-0.04213053490287482,0.03380334780256126,0.11796946739786474,0.0
-0.042151992577551915,0.033852700454318575,0.11832915166963956,0.0
-0.04215306546128577,0.03386262462885673,0.1181011638761954,0.0
-0.04217398669409594,0.0338237325935045,0.11810545541113085,0.0
-0.042187665961702585,0.033767406197477125,0.11811350203913476,0.0
-0.04217345025222901,0.033800129151359694,0.11817465641196448,0.0
-0.042128657356340575,0.03377733037201528,0.11816205002809169,0.0
-0.04216164853115661,0.03379691050015813,0.11798851108414066,0.0
-0.042168622275426663,0.03379610583735774,0.11794103597891759,0.0
-0.04215521122875348,0.033806834674696286,0.11802096581708976,0.0
-0.04217505957782979,0.033808980442163995,0.11792091940890781,0.0
-0.04216486718235817,0.03385538266365321,0.11793781732771602,0.0
-0.04216969515916052,0.03381729529110137,0.11808587528298797,0.0
-0.042114173425933536,0.03378510877908573,0.11807112313164747,0.0
-0.04220483210144426,0.03376123711600746,0.11805851674777468,0.0
-0.04219893124090806,0.03378913209308768,0.1180265984566925,0.0
-0.042168622275426663,0.03382775590750645,0.11801989293335591,0.0
-0.042126511588872866,0.03381380841896634,0.11812718130674141,0.0
-0.042186861298902194,0.03378323123255148,0.11796061610706043,0.0
-0.04220912363637968,0.03382990167497416,0.11775542709296072,0.0
-0.04219893124090806,0.033831511000574944,0.11812691308580794,0.0
-0.04217291381036208,0.033855650884586676,0.11800782299135004,0.0
-0.04217854644996482,0.03386825726845947,0.11790911768783541,0.0
-0.04217613246156365,0.0338022749188274,0.11810465074833046,0.0
-0.0421713044847613,0.03376043245320707,0.11806951380604669,0.0
-0.042149846810084206,0.03381970927950254,0.11809740878312691,0.0
-0.042172377368495155,0.033838752965778464,0.1180952630156592,0.0
-0.04215252901941884,0.03381246731429902,0.11789892529236379,0.0
-0.04214126374021337,0.033839557628578855,0.11776454660469848,0.0
-0.04218149688023292,0.033838216523911537,0.11797617292120133,0.0
-0.04219007995010376,0.03384572671004852,0.11809097148072378,0.0
-0.042231385973857165,0.03377947613948299,0.11799789881681189,0.0
-0.04217881467089828,0.03387952254766494,0.11798663353760641,0.0
-0.04216486718235817,0.033839557628578855,0.11770366045280223,0.0
-0.042120610728336665,0.033953015083434,0.11786807988501546,0.0
-0.04217854644996482,0.033876035675529916,0.11819718697037543,0.0
-0.04214528705421532,0.03385457800085282,0.11811216093446744,0.0
-0.0421291937982075,0.033848945361250084,0.11808909393418954,0.0
-0.04207930470458326,0.03386611150099176,0.11811001516699973,0.0
-0.042060261018307336,0.03384304450071388,0.11813898302781381,0.0
-0.042154943007820016,0.033840362291379246,0.11820577004024627,0.0
-0.04216915871729359,0.033876035675529916,0.11803088999162792,0.0
-0.04214448239141493,0.03384116695417964,0.11794157242078451,0.0
-0.04214367772861454,0.03378805920935383,0.11804027772429915,0.0
-0.04212973024007443,0.033817027070167906,0.11800996875881775,0.0
-0.04213724042621141,0.03386155174512288,0.11796812629319742,0.0
-0.0421291937982075,0.033836607198310754,0.11805288410817194,0.0
-0.042113368763133145,0.03387549923366299,0.11806119895710931,0.0
-0.042085742006986386,0.03384948180311701,0.11788712357129139,0.0
-0.042135899321544094,0.03381649062830098,0.11773906561601943,0.0
-0.04217210914756169,0.03382480547723835,0.1180864117248549,0.0
-0.042162453193957,0.03383043811684109,0.11817090131889599,0.0
-0.04216459896142471,0.033892128931537736,0.11811672069033632,0.0
-0.04213643576341102,0.03395381974623439,0.11798931574694105,0.0
-0.0421350946587437,0.03392163323421875,0.11791796897863971,0.0
-0.04212597514700594,0.03395381974623439,0.1178922197690272,0.0
-0.04213992263554605,0.03388140009419919,0.11808667994578836,0.0
-0.042184715531434484,0.033873085245261815,0.11806012607337546,0.0
-0.04214877392635035,0.033903662431676675,0.11806549049204473,0.0
-0.04211953784460281,0.03392190145515221,0.11808855749232261,0.0
-0.04214743282168303,0.03390688108287824,0.1179941437237434,0.0
-0.042161380310223144,0.03384304450071388,0.11799736237494496,0.0
-0.04215896632182197,0.03391948746675103,0.11804698324763574,0.0
-0.04212168361207052,0.033887569175668854,0.11804161882896647,0.0
-0.042117660298068564,0.033876035675529916,0.11810545541113085,0.0
-0.04216084386835622,0.03387791322206416,0.11806709981764552,0.0
-0.04210344458859499,0.03386906193125986,0.1179187736414401,0.0
-0.04214582349608225,0.033870134814993715,0.11787317608275127,0.0
-0.042152797240352306,0.03391841458301718,0.11780290219818379,0.0
-0.04214528705421532,0.03388300941979997,0.11771277996453999,0.0
-0.0421713044847613,0.033860747082322486,0.11814112879528152,0.0
-0.042175327798763255,0.03387281702432835,0.11809445835285881,0.0
-0.04216459896142471,0.03390017555954165,0.11801882004962205,0.0
-0.04214582349608225,0.03388300941979997,0.11799441194467686,0.0
-0.042146091717015714,0.03387442634992913,0.11791904186237356,0.0
-0.04213348533314292,0.03387979076859841,0.11772994610428167,0.0
-0.042168085833559736,0.03382695124470606,0.11787880872235401,0.0
-0.04219463970597264,0.03382882879124031,0.11803732729403105,0.0
-0.042175327798763255,0.03385645554738707,0.11798261022360446,0.0
-0.042126511588872866,0.03391868280395064,0.11796624874666317,0.0
-0.04220027234557538,0.03381166265149863,0.11785869215234424,0.0
-0.04219437148503918,0.03378591344188612,0.11788283203635597,0.0
-0.04217076804289437,0.03379530117455735,0.11797429537466708,0.0
-0.042159234542755435,0.033855650884586676,0.11802981710789406,0.0
-0.04220483210144426,0.03379127786055539,0.117963834758262,0.0
-0.042211001182913925,0.033810321546831314,0.11796195721172775,0.0
-0.0421742549150294,0.033863697512590586,0.11795739745585887,0.0
-0.042151992577551915,0.03387067125686064,0.11771143885987267,0.0
-0.0421860566361018,0.03382480547723835,0.11794640039758686,0.0
-0.042164330740491245,0.033862892849790195,0.11820067384251046,0.0
-0.04214340950768108,0.033835266093643436,0.11807595110844982,0.0
-0.04214233662394722,0.03379100963962193,0.11801318741001932,0.0
-0.04217479135689633,0.0338982980130074,0.11804778791043613,0.0
-0.04215682055435426,0.03390044378047511,0.11801882004962205,0.0
-0.04211712385620164,0.03386959837312679,0.11810518719019739,0.0
-0.04211953784460281,0.033889178501269636,0.11807219601538133,0.0
-0.042160039205555826,0.033841703396046564,0.11814166523714845,0.0
-0.04215306546128577,0.03389507936180584,0.11817841150503297,0.0
-0.04216325785675739,0.03385296867525204,0.11802337980549094,0.0
-0.04210585857699616,0.03388676451286846,0.1178981206295634,0.0
-0.04216594006609203,0.033881131873265725,0.11791823719957317,0.0
-0.04221475627598242,0.03390500353634399,0.11803893661963183,0.0
-0.04222950842732292,0.033905808199144384,0.11783723447766714,0.0
-0.04213053490287482,0.033894274699005446,0.1182122073426494,0.0
-0.042153333682219234,0.033839557628578855,0.11827362993641258,0.0
-0.04212463404233862,0.033930216304089586,0.11811591602753593,0.0
-0.0421506514728846,0.03391948746675103,0.1179608843279939,0.0
-0.04215816165902158,0.03383982584951232,0.11810035921339501,0.0
-0.04215011503101767,0.033843849163514274,0.11811377026006822,0.0
-0.042160039205555826,0.03387442634992913,0.11807514644564943,0.0
-0.04218203332209985,0.03385001824498394,0.11793486689744792,0.0
-0.042163526077690854,0.033773307058013326,0.11807729221311714,0.0
-0.04212222005393745,0.03385538266365321,0.11825163581986856,0.0
-0.042167281170759345,0.03384223983791349,0.11805476165470619,0.0
-0.042184715531434484,0.03380951688403092,0.11801077342161814,0.0
-0.04216969515916052,0.033839557628578855,0.11791314100183736,0.0
-0.04216889049636013,0.03388971494313656,0.11759368987008212,0.0
-0.04227135089294325,0.03379744694202506,0.11800996875881775,0.0
-0.04224211481119571,0.03388274119886651,0.11820040562157699,0.0
-0.042160039205555826,0.03393048452502305,0.11810330964366314,0.0
-0.04218364264770063,0.03383499787270997,0.11810921050419934,0.0
-0.0421860566361018,0.03382239148883718,0.11810706473673163,0.0
-0.04217801000809789,0.033847604256582765,0.11814166523714845,0.0
-0.04215816165902158,0.03388005898953187,0.11822642305212297,0.0
-0.04216459896142471,0.03384063051231271,0.11802203870082362,0.0
-0.04214206840301376,0.03385216401245165,0.11791153167623658,0.0
-0.04215869810088851,0.0338355343145769,0.11801747894495473,0.0
-0.04214045907741298,0.033867184384725614,0.11813469149287839,0.0
-0.04212892557727404,0.033859137756721704,0.1182173035403852,0.0
-0.04214340950768108,0.03380710289562975,0.11808104730618563,0.0
-0.042170231601027446,0.033774648162680644,0.11798931574694105,0.0
-0.04212382937953823,0.03389186071060427,0.11807085491071401,0.0
-0.04209137464658912,0.033865843280058296,0.11796142076986083,0.0
-0.04204980040190225,0.03386047886138902,0.11778412673284133,0.0
-0.0421890070663699,0.03382748768657299,0.11820201494717777,0.0
-0.042153333682219234,0.0338894467222031,0.11827818969228146,0.0
-0.04216754939169281,0.033868793710326396,0.11815883137689012,0.0
-0.04219410326410571,0.03387442634992913,0.11810062743432848,0.0
-0.04218069221743253,0.03392297433888607,0.11807514644564943,0.0
-0.04213563110061063,0.03387576745459645,0.11779217336084524,0.0
-0.04215172435661845,0.03381970927950254,0.11803679085216412,0.0
-0.042183374426767166,0.033828560570306844,0.11826424220374135,0.0
-0.04212114717020359,0.033903662431676675,0.11811672069033632,0.0
-0.042166476507958954,0.03383794830297807,0.11804081416616607,0.0
-0.0421772053452975,0.03386101530325595,0.11815024830701928,0.0
-0.042185520194234875,0.03384519026818159,0.11814246989994884,0.0
-0.04217479135689633,0.03382319615163757,0.11808292485271987,0.0
-0.04212195183300398,0.03383204744244187,0.11807836509685099,0.0
-0.04214448239141493,0.03383580253551036,0.11803813195683144,0.0
-0.04213777686807834,0.033895615803672764,0.11810545541113085,0.0
-0.042133753554076385,0.03388274119886651,0.11812020756247135,0.0
-0.04214448239141493,0.033868793710326396,0.11801747894495473,0.0
-0.04212543870513901,0.03388810561753578,0.1178375026986006,0.0
-0.04213992263554605,0.03389802979207394,0.11827282527361219,0.0
-0.042149042147283815,0.03385752843112092,0.11819986917971007,0.0
-0.04217398669409594,0.03373709723199573,0.11805744386404082,0.0
-0.04214743282168303,0.033808980442163995,0.11813737370221303,0.0
-0.04217693712436404,0.03379717872109159,0.11818645813303688,0.0
-0.04215816165902158,0.03375614091827165,0.11806924558511322,0.0
-0.04216969515916052,0.033774648162680644,0.11806146717804278,0.0
-0.04217774178716443,0.033790741418688465,0.11807648755031674,0.0
-0.042185520194234875,0.03377786681388221,0.11803223109629524,0.0
-0.04214528705421532,0.033767406197477125,0.11791635965303893,0.0
-0.042160039205555826,0.03380737111656321,0.11789382909462798,0.0
-0.04217345025222901,0.033763114662541706,0.11786942098968278,0.0
-0.04222468045052057,0.03379691050015813,0.11817787506316604,0.0
-0.04216111208928968,0.03392002390861796,0.11818592169116995,0.0
-0.042170231601027446,0.03382802412843992,0.11778412673284133,0.0
-0.042167281170759345,0.03386530683819137,0.11804886079416999,0.0
-0.04217479135689633,0.03383607075644383,0.11827470282014643,0.0
-0.04217854644996482,0.03377196595334601,0.11815668560942241,0.0
-0.04215547944968694,0.033799592709492766,0.11817063309796252,0.0
-0.04216620828702549,0.033798788046692375,0.1181368372603461,0.0
-0.042142604844880686,0.0338207821632364,0.11810813762046549,0.0
-0.04212731625167326,0.033867184384725614,0.11808909393418954,0.0
-0.04219034817103722,0.0338022749188274,0.1180480561313696,0.0
-0.04217076804289437,0.03381756351203483,0.11815507628382163,0.0
-0.04215306546128577,0.03380549357002897,0.11814327456274923,0.0
-0.042177473566230965,0.03386664794285869,0.11820174672624431,0.0
-0.04224801567173191,0.03379825160482545,0.11824546673839889,0.0
-0.04219544436877303,0.03378028080228338,0.11807326889911518,0.0
-0.04219088461290415,0.033763114662541706,0.11799065685160837,0.0
-0.04219732191530728,0.0337934236280231,0.11809177614352417,0.0
-0.042219852473718227,0.03383928940764539,0.11809338546912496,0.0
-0.04218739774076912,0.03383419320990958,0.11801560139842049,0.0
-0.04214072729834644,0.03379744694202506,0.11808480239925412,0.0
-0.04213402177500985,0.033774648162680644,0.1178981206295634,0.0
-0.042187665961702585,0.033759359569473214,0.11778385851190787,0.0
-0.04220912363637968,0.03373575612732841,0.11842597942661995,0.0
-0.04217345025222901,0.03372985526679221,0.11822964170332453,0.0
-0.04216379429862432,0.03379744694202506,0.11811940289967096,0.0
-0.0421506514728846,0.03383982584951232,0.11804966545697038,0.0
-0.042157088775287725,0.0337727706161464,0.1180834612945868,0.0
-0.042191421054771076,0.03382319615163757,0.1180775604340506,0.0
-0.04218069221743253,0.033831511000574944,0.11789651130396261,0.0
-0.04216996338009398,0.033829365233107235,0.11791770075770625,0.0
-0.04214743282168303,0.03381970927950254,0.11819450476104079,0.0
-0.04219034817103722,0.033789936755888074,0.1180510065616377,0.0
-0.042177473566230965,0.03382480547723835,0.11801533317748703,0.0
-0.0421742549150294,0.033873085245261815,0.11803786373589797,0.0
-0.04219115283383761,0.03378215834881763,0.11796437120012893,0.0
-0.04219678547344035,0.0337698201858783,0.11811698891126979,0.0
-0.042185520194234875,0.03377196595334601,0.11810867406233241,0.0
-0.0421595027636889,0.03378591344188612,0.11808265663178641,0.0
-0.04221958425278476,0.033729587045858746,0.11799065685160837,0.0
-0.04218391086863409,0.03375319048800355,0.11779861066324837,0.0
-0.04216406251955778,0.03372824594119143,0.11794371818825222,0.0
-0.04215601589155387,0.03377733037201528,0.11806441760831088,0.0
-0.04213536287967717,0.03372314974345562,0.11813656903941264,0.0
-0.04214582349608225,0.03372610017372372,0.11802123403802323,0.0
-0.04214528705421532,0.03379127786055539,0.11801211452628546,0.0
-0.042196517252506886,0.03377437994174718,0.11795900678145965,0.0
-0.042186324857035266,0.033764455767209024,0.11805181122443809,0.0
-0.04220966007824661,0.03377786681388221,0.11811806179500364,0.0
-0.042186324857035266,0.033775452825481035,0.11795820211865926,0.0
-0.04215735699622119,0.03379422829082349,0.11790241216449882,0.0
-0.04213268067034253,0.03378403589535187,0.1178766629548863,0.0
-0.04208440090231907,0.03376123711600746,0.11773396941828362,0.0
-0.04218659307796873,0.033764455767209024,0.11778546783750865,0.0
-0.04224721100893152,0.03366065426595858,0.11824788072680006,0.0
-0.04220429565957733,0.0337875227674869,0.11825136759893509,0.0
-0.042190616391970685,0.0337698201858783,0.11810062743432848,0.0
-0.04220241811304309,0.033730928150526064,0.11800943231695082,0.0
-0.04220778253171236,0.033751312941469304,0.11803491330562987,0.0
-0.04219946768277499,0.03376847908121098,0.11807326889911518,0.0
-0.042210196520113534,0.033773307058013326,0.11803625441029719,0.0
-0.04221368339224856,0.033700350964111205,0.11799360728187647,0.0
-0.042171572705694764,0.033766601534676734,0.1181220851090056,0.0
-0.04216674472889242,0.033790473197755,0.11803705907309758,0.0
-0.04214743282168303,0.03371966287132059,0.11791501854837161,0.0
-0.04218096043836599,0.033722881522522154,0.11805798030590775,0.0
-0.04220966007824661,0.0337277094993245,0.11797697758400172,0.0
-0.04218525197330141,0.03368452592903685,0.11798663353760641,0.0
-0.04213268067034253,0.03372261330158869,0.117934330455581,0.0
-0.04215977098462236,0.033674869975432155,0.11772029015067698,0.0
-0.042210196520113534,0.03363222284701143,0.11810545541113085,0.0
-0.04217801000809789,0.033755872697338186,0.11813281394634415,0.0
-0.04217774178716443,0.03368640347557109,0.1179882428632072,0.0
-0.04216620828702549,0.03371698066198595,0.11805207944537155,0.0
-0.04219732191530728,0.033680770835968356,0.118059857852442,0.0
-0.04216754939169281,0.03368479414997031,0.11806173539897624,0.0
-0.04218069221743253,0.03364402456808383,0.117993339060943,0.0
-0.04218954350823683,0.03362363977714059,0.11794747328132071,0.0
-0.0421860566361018,0.03361934824220517,0.11795551990932462,0.0
-0.0421232929376713,0.03362498088180791,0.11791555499023854,0.0
-0.04219410326410571,0.03365421696355545,0.11776266905816424,0.0
-0.042190616391970685,0.03361961646313864,0.11787103031528356,0.0
-0.042187665961702585,0.03364912076581964,0.11804644680576881,0.0
-0.0421654036242251,0.033685867033704166,0.11794157242078451,0.0
-0.042141800182080295,0.03368533059183724,0.11785976503607809,0.0
-0.04215440656595309,0.033679966173167965,0.11765672178944608,0.0
-0.04217184092662823,0.03366306825435975,0.11766154976624843,0.0
-0.042176668903430574,0.03365984960315819,0.11829964736695855,0.0
-0.042167281170759345,0.03362846775394294,0.11802874422416021,0.0
-0.04213187600754214,0.033688012801171875,0.11790482615289999,0.0
-0.04213107134474175,0.03366575046369439,0.11792521094384323,0.0
-0.04216406251955778,0.03360754652113277,0.11797000383973166,0.0
-0.04212382937953823,0.03361183805606819,0.11800272679361423,0.0
-0.04215172435661845,0.03360674185833238,0.11797000383973166,0.0
-0.04220134522930923,0.03365394874262199,0.1179069719203677,0.0
-0.042183374426767166,0.03364590211461808,0.11792655204851055,0.0
-0.04215574767062041,0.03366011782409165,0.1178951701992953,0.0
-0.04219624903157342,0.0336619953706259,0.1179541788046573,0.0
-0.042192762159438395,0.033659581382224725,0.1180206975961563,0.0
-0.042137508647144876,0.033665482242760926,0.11799950814241267,0.0
-0.04212517048420555,0.03366145892875897,0.117963834758262,0.0
-0.04217049982196091,0.03365797205662394,0.11798046445613675,0.0
-0.04215574767062041,0.03369713231290964,0.1179490826069215,0.0
-0.042159234542755435,0.03369766875477657,0.11791662787397239,0.0
-0.04216889049636013,0.033650730091420424,0.11787880872235401,0.0
-0.04216781761262627,0.03369498654544193,0.1177755436629705,0.0
-0.042136703984344485,0.033713493789850925,0.1176816663362582,0.0
-0.042051409727503035,0.033722881522522154,0.11795873856052619,0.0
-0.04211712385620164,0.03371805354571981,0.11792950247877865,0.0
-0.04217559601969672,0.03368693991743802,0.11802284336362401,0.0
-0.04215091969381806,0.033704106057179696,0.11814434744648308,0.0
-0.042149846810084206,0.03370812937118165,0.11812181688807213,0.0
-0.04211819673993549,0.0337100069177159,0.11793593978118178,0.0
-0.04212704803073979,0.03367138310329713,0.11783267472179826,0.0
-0.04214448239141493,0.03366601868462785,0.11786056969887848,0.0
-0.04213563110061063,0.03367513819636562,0.11783562515206636,0.0
-0.04212973024007443,0.03363356395167875,0.11787398074555167,0.0
-0.042066430099777,0.03369579120824232,0.11787585829208591,0.0
-0.042128657356340575,0.03371617599918556,0.11762989969609972,0.0
-0.04216057564742275,0.03366655512649478,0.11780343864005072,0.0
-0.04212677980980633,0.03368479414997031,0.11806441760831088,0.0
-0.04215977098462236,0.03361961646313864,0.11792386983917591,0.0
-0.04213428999594331,0.033626858428342156,0.11791072701343619,0.0
-0.04210371280952845,0.03364187880061612,0.1178774676176867,0.0
-0.04211605097246778,0.03364536567275115,0.11787398074555167,0.0
-0.04217693712436404,0.03362229867247327,0.11776856991870044,0.0
-0.042135899321544094,0.03370142384784506,0.11789570664116222,0.0
-0.04216057564742275,0.033604864311798134,0.11791475032743814,0.0
-0.04213724042621141,0.03363436861447914,0.11787934516422094,0.0
-0.04211524630966739,0.033615861370070145,0.11786673878034815,0.0
-0.04213133956567521,0.03360540075366506,0.11790938590876887,0.0
-0.042168085833559736,0.03365099831235389,0.11786137436167887,0.0
-0.042143945949548005,0.033629808858610256,0.11786030147794502,0.0
-0.04212812091447365,0.033670578440496736,0.11774335715095485,0.0
-0.04211658741433471,0.033670578440496736,0.11795551990932462,0.0
-0.04210585857699616,0.03364375634715037,0.11797402715373362,0.0
-0.042074744948714375,0.03364026947501534,0.11784984086153993,0.0
-0.04204819107630147,0.033654485184488915,0.11764545651024061,0.0
-0.04213348533314292,0.03363061352141065,0.11757732839314083,0.0
-0.042157893438088116,0.03361452026540283,0.11800782299135004,0.0
-0.04213321711220946,0.0336287359748764,0.11796651696759664,0.0
-0.04214743282168303,0.03364375634715037,0.11781819079139122,0.0
-0.042154943007820016,0.0336110333932678,0.11786056969887848,0.0
-0.04214877392635035,0.033640001254081876,0.11791957830424049,0.0
-0.04215145613568499,0.03360674185833238,0.11791340922277083,0.0
-0.04213616754247756,0.03366735978929517,0.117897315966763,0.0
-0.04210290814672806,0.03367004199862981,0.11791823719957317,0.0
-0.04212248827487091,0.03367218776609752,0.11793218468811328,0.0
-0.04215682055435426,0.033657435614757016,0.11783884380326792,0.0
-0.04212087894927013,0.03372636839465718,0.1179512283743892,0.0
-0.04213268067034253,0.033679966173167965,0.11794935082785496,0.0
-0.04215896632182197,0.03375319048800355,0.11790455793196652,0.0
-0.042183374426767166,0.033674065312631764,0.11794344996731876,0.0
-0.04218498375236795,0.0336885492430388,0.11795578813025809,0.0
-0.04218498375236795,0.03372314974345562,0.11798126911893714,0.0
-0.0421232929376713,0.033733878580794165,0.11782006833792547,0.0
-0.04217479135689633,0.03368693991743802,0.11760575981208798,0.0
-0.04219678547344035,0.03368479414997031,0.11807970620151831,0.0
-0.04215521122875348,0.033692304336107294,0.11812369443460638,0.0
-0.04216674472889242,0.03370571538278048,0.11792360161824245,0.0
-0.042156284112487334,0.033650730091420424,0.11807782865498406,0.0
-0.04220912363637968,0.033623907998074055,0.11812557198114063,0.0
-0.04219249393850493,0.03363597794007992,0.11811055160886666,0.0
-0.04219759013624074,0.03360888762580009,0.11797054028159859,0.0
-0.04221717026438359,0.03365716739382355,0.11804886079416999,0.0
-0.04217559601969672,0.03368479414997031,0.11813335038821107,0.0
-0.04215547944968694,0.03366333647529322,0.11791716431583932,0.0
-0.04220912363637968,0.03364375634715037,0.11767710658038932,0.0
-0.04221073296198046,0.03367460175449869,0.11796061610706043,0.0
-0.0421801557755656,0.03366601868462785,0.11803705907309758,0.0
-0.04217586424063018,0.03366145892875897,0.11797778224680211,0.0
-0.042200808787442305,0.033613715602602436,0.1179040214900996,0.0
-0.042183374426767166,0.03364321990528344,0.1179490826069215,0.0
-0.04213536287967717,0.03361183805606819,0.1178501090824734,0.0
-0.04218096043836599,0.0336375872656807,0.11768917652239519,0.0
-0.04217210914756169,0.033666823347428244,0.11802016115428937,0.0
-0.04220483210144426,0.03361961646313864,0.11816178180715822,0.0
-0.04217613246156365,0.03359708590472769,0.11798502421200563,0.0
-0.04216325785675739,0.033626858428342156,0.11797000383973166,0.0
-0.042174523135962864,0.03366628690556132,0.11799602127027764,0.0
-0.042178278229031356,0.03364590211461808,0.11802391624735786,0.0
-0.04214582349608225,0.033657435614757016,0.11802230692175708,0.0
-0.04215816165902158,0.033650730091420424,0.11791099523436965,0.0
-0.042183374426767166,0.033629808858610256,0.11794425463011915,0.0
-0.042202149892109624,0.033568922706714,0.1180960676784596,0.0
-0.04220107700837577,0.033660386045025116,0.11801560139842049,0.0
-0.04217881467089828,0.033688817463972266,0.11798180556080407,0.0
-0.04217586424063018,0.033682916603436065,0.11799897170054574,0.0
-0.042195712589706495,0.033674869975432155,0.11805637098030697,0.0
-0.042228435543589064,0.033582333753387185,0.11808667994578836,0.0
-0.04220054056650884,0.033612910939802045,0.11760629625395491,0.0
-0.04220054056650884,0.033572946020715956,0.11794774150225418,0.0
-0.04217935111276521,0.033621762230606346,0.1180649540501778,0.0
-0.04220644142704504,0.03363946481221495,0.11793754910678256,0.0
-0.04221717026438359,0.03358474774178836,0.11794076775798412,0.0
-0.04214045907741298,0.03367728396383333,0.11811189271353398,0.0
-0.04217854644996482,0.03360727830019931,0.11805851674777468,0.0
-0.042202954554910015,0.03358689350925607,0.11797536825840094,0.0
-0.042213146950381635,0.03362122578873942,0.11789329265276105,0.0
-0.042262767823072415,0.033591721486058414,0.11775918218602921,0.0
-0.04218498375236795,0.033652339417021206,0.11810921050419934,0.0
-0.04220992829918007,0.03360003633499579,0.11805207944537155,0.0
-0.04220912363637968,0.0336051325327316,0.11800353145641462,0.0
-0.04217479135689633,0.033631149963277575,0.11803652263123066,0.0
-0.042170231601027446,0.033607010079265844,0.11792091940890781,0.0
-0.04219732191530728,0.033588234613923386,0.11777205679083547,0.0
-0.04219007995010376,0.03367326064983137,0.11805288410817194,0.0
-0.042200808787442305,0.033658776719424334,0.11804698324763574,0.0
-0.042179619333698674,0.033649388986753105,0.1177267274530801,0.0
-0.04217613246156365,0.033639196591281485,0.11791072701343619,0.0
-0.04218739774076912,0.03359708590472769,0.11826638797120906,0.0
-0.042153333682219234,0.03361773891660439,0.11806441760831088,0.0
-0.04217881467089828,0.03360969228860048,0.11799012040974144,0.0
-0.04221502449691588,0.033604864311798134,0.11801962471242244,0.0
-0.04218069221743253,0.03365341230075506,0.1181574902722228,0.0
-0.04220188167117616,0.03363597794007992,0.11819101788890576,0.0
-0.04218417908956756,0.033638391928481094,0.11793969487425027,0.0
-0.04218417908956756,0.03358501596272182,0.11782301876819357,0.0
-0.04219088461290415,0.033580187985919475,0.11800460434014848,0.0
-0.04216486718235817,0.03355282945070618,0.1180561027593735,0.0
-0.042193566822238786,0.033548001473903834,0.11806254006177663,0.0
-0.04223192241572409,0.03359198970699188,0.11799253439814261,0.0
-0.042202954554910015,0.03363973303314841,0.11801640606122088,0.0
-0.04220483210144426,0.03359413547445959,0.11803571796843026,0.0
-0.042182569763966775,0.03360298676526389,0.11781282637272195,0.0
-0.04216701294982588,0.03359225792792534,0.11792816137411133,0.0
-0.04216379429862432,0.033552561229772716,0.11814381100461616,0.0
-0.04220644142704504,0.03351635140375512,0.11801265096815239,0.0
-0.042190616391970685,0.03361532492820322,0.118115379585669,0.0
-0.042211805845714316,0.033612910939802045,0.11793191646717982,0.0
-0.04219463970597264,0.033592526148858805,0.11813764192314649,0.0
-0.04217264558942862,0.03358635706738914,0.11823849299412884,0.0
-0.04216969515916052,0.033579383323119084,0.11813361860914454,0.0
-0.04221261050851471,0.033561948962443945,0.11807863331778445,0.0
-0.042182569763966775,0.033530567113228694,0.11805798030590775,0.0
-0.04216996338009398,0.033539418404032996,0.11811645246940286,0.0
-0.04217371847316247,0.03359574480006037,0.11814005591154766,0.0
-0.04219946768277499,0.03354478282270227,0.11810009099246155,0.0
-0.04217479135689633,0.033586088846455676,0.11811940289967096,0.0
-0.04218954350823683,0.03352734846202713,0.11811806179500364,0.0
-0.042191421054771076,0.03357884688125216,0.11824090698253001,0.0
-0.04220027234557538,0.0335718731369821,0.1182800672388157,0.0
-0.04218739774076912,0.03357401890444981,0.11811055160886666,0.0
-0.04219249393850493,0.033562753625244336,0.11797965979333636,0.0
-0.042164330740491245,0.03358474774178836,0.11785627816394306,0.0
-0.04210666323979655,0.033556852764708135,0.11798877930507412,0.0
-0.04220939185731314,0.03360942406766702,0.11839111070526967,0.0
-0.04226008561373778,0.033623907998074055,0.11819316365637347,0.0
-0.04225123432293348,0.033607814742066235,0.11804161882896647,0.0
-0.042234336404125265,0.03360298676526389,0.11813120462074336,0.0
-0.04222307112491979,0.03356516761364551,0.11827845791321492,0.0
-0.042192762159438395,0.03363785548661417,0.1182092569123813,0.0
-0.04219812657810767,0.03355846209030892,0.11811993934153789,0.0
-0.04219544436877303,0.03363302750981182,0.11812235332993906,0.0
-0.04221475627598242,0.03358501596272182,0.11816768266769442,0.0
-0.04219463970597264,0.03360620541646545,0.11819235899357308,0.0
-0.042177473566230965,0.03364536567275115,0.11797992801426982,0.0
-0.04222950842732292,0.03362551732367484,0.11810921050419934,0.0
-0.04220617320611158,0.03368023439410143,0.11824010231972962,0.0
-0.04218364264770063,0.03365207119608774,0.11816902377236174,0.0
-0.0422222664621194,0.033571336695115174,0.1181937000982404,0.0
-0.04219410326410571,0.03364831610301925,0.11816178180715822,0.0
-0.04222468045052057,0.033584479520854894,0.11801586961935395,0.0
-0.0422281673226556,0.033615056707269754,0.11791850542050664,0.0
-0.04219410326410571,0.033666823347428244,0.11814622499301733,0.0
-0.04217693712436404,0.033606473637398916,0.11841149549621291,0.0
-0.042143945949548005,0.03359735412566115,0.11819316365637347,0.0
-0.04213536287967717,0.03359601302099383,0.11807595110844982,0.0
-0.042260622055604706,0.033606473637398916,0.11796276187452814,0.0
-0.042232190636657556,0.03362363977714059,0.1181722424235633,0.0
-0.04221234228758124,0.03358635706738914,0.11826477864560828,0.0
-0.04221743848531705,0.033553902334440035,0.118211402679849,0.0
-0.042243724136796494,0.03351930183402322,0.11815856315595666,0.0
-0.042200004124641914,0.033613715602602436,0.11813281394634415,0.0
-0.042185520194234875,0.03359064860232456,0.1181722424235633,0.0
-0.04220027234557538,0.033604864311798134,0.11822052219158677,0.0
-0.04216084386835622,0.03365716739382355,0.11830098847162587,0.0
-0.04214367772861454,0.033640537695948804,0.11815641738848895,0.0
-0.04219893124090806,0.03354424638083534,0.11782999251246362,0.0
-0.042241578369328785,0.033583138416187576,0.11789302443182759,0.0
-0.04222602155518789,0.03358555240458875,0.11840237598447514,0.0
-0.04220617320611158,0.03360084099779618,0.11835731486765325,0.0
-0.04219946768277499,0.03361452026540283,0.11832459191377068,0.0
-0.042202149892109624,0.03361961646313864,0.11829133251802118,0.0
-0.042207246089845434,0.033600572776862715,0.11825995066880593,0.0
-0.04219759013624074,0.033609960509533944,0.11825002649426777,0.0
-0.04221421983411549,0.03357965154405255,0.1182602188897394,0.0
-0.04220107700837577,0.03359091682325802,0.11823393323825995,0.0
-0.04213938619367912,0.033641342358749195,0.11819021322610537,0.0
-0.04219678547344035,0.03353619975283143,0.11831788639043408,0.0
-0.04221153762478085,0.03357670111378445,0.1182232044009214,0.0
-0.04218444731050102,0.0336375872656807,0.11808158374805255,0.0
-0.042210464741047,0.033556852764708135,0.11824653962213275,0.0
-0.04217103626382784,0.03357160491604864,0.11840988617061213,0.0
-0.042193566822238786,0.03358903927672378,0.11826343754094096,0.0
-0.04215816165902158,0.03362712664927562,0.11827336171547911,0.0
-0.04216325785675739,0.03356221718337741,0.11829750159949085,0.0
-0.042219047810917835,0.03357696933471791,0.11825136759893509,0.0
-0.04221502449691588,0.033591721486058414,0.1182151577729175,0.0
-0.042208855415446216,0.03353968662496646,0.11824332097093118,0.0
-0.04218203332209985,0.03360084099779618,0.11820228316811124,0.0
-0.042154138345019625,0.033620957567805955,0.11797080850253205,0.0
-0.04219544436877303,0.03356033963684316,0.11827094772707794,0.0
-0.042171572705694764,0.03357536000911713,0.11840157132167475,0.0
-0.04219759013624074,0.03361908002127171,0.11829186895988811,0.0
-0.042197053694373814,0.03362846775394294,0.11845467906650056,0.0
-0.04218283798490024,0.03361559314913668,0.11833451608830883,0.0
-0.04218739774076912,0.03361639781193707,0.11818592169116995,0.0
-0.04218069221743253,0.03361961646313864,0.11824010231972962,0.0
-0.04217935111276521,0.03362712664927562,0.11827282527361219,0.0
-0.042176668903430574,0.033613715602602436,0.11839486579833816,0.0
-0.04218364264770063,0.03362846775394294,0.11840827684501135,0.0
-0.0421831062058337,0.033638391928481094,0.11820496537744588,0.0
-0.04219544436877303,0.03360245032339696,0.11807407356191557,0.0
-0.042229240206389455,0.03358179731152026,0.11803115821256138,0.0
-0.04217264558942862,0.03361022873046741,0.11792628382757708,0.0
-0.04220778253171236,0.033582333753387185,0.11830125669255934,0.0
-0.04224989321826616,0.033519570054956684,0.11848096471798,0.0
-0.04219222571757147,0.033530567113228694,0.11848552447384889,0.0
-0.04224506524146381,0.03352868956669445,0.11840371708914246,0.0
-0.042136703984344485,0.03358206553245372,0.11838708739126771,0.0
-0.04218283798490024,0.03350106281054769,0.11833693007671,0.0
-0.042274301323211354,0.03352708024109367,0.11833129743710727,0.0
-0.042226289776121355,0.03356382650897819,0.11832941989057302,0.0
-0.04219759013624074,0.03357053203231478,0.11830983976243017,0.0
-0.04220992829918007,0.03357026381138132,0.11829830626229124,0.0
-0.04219088461290415,0.03363222284701143,0.11833371142550844,0.0
-0.042187665961702585,0.033588234613923386,0.11831520418109945,0.0
-0.04218096043836599,0.033537809078432214,0.11830983976243017,0.0
-0.0421801557755656,0.03355202478790579,0.11838118653073151,0.0
-0.04219544436877303,0.033548001473903834,0.1183790407632638,0.0
-0.042193566822238786,0.03354934257857115,0.11817707040036565,0.0
-0.042211805845714316,0.03352895778762791,0.11787559007115245,0.0
-0.042201613450242696,0.033532712880696404,0.11829052785522079,0.0
-0.042207246089845434,0.03355336589257311,0.11869393213915017,0.0
-0.0422134151713151,0.033517424287488974,0.11833666185577654,0.0
-0.04225069788106655,0.03348201912427177,0.11827148416894487,0.0
-0.04217935111276521,0.03365502162635584,0.11839727978673933,0.0
-0.042187665961702585,0.03357965154405255,0.11833612541390962,0.0
-0.04220992829918007,0.033549610799504616,0.11835811953045364,0.0
-0.04220483210144426,0.033548001473903834,0.11838467340286654,0.0
-0.042185520194234875,0.03356221718337741,0.11831198552989788,0.0
-0.04220349099677694,0.033502940357081935,0.11826746085494291,0.0
-0.042160039205555826,0.033572141357915565,0.11828918675055347,0.0
-0.04218149688023292,0.03357562823005059,0.11829052785522079,0.0
-0.04223299529945795,0.03355497521817389,0.11845387440370017,0.0
-0.042244528799596885,0.033494089066277634,0.1183318338789742,0.0
-0.042206709647978506,0.033561948962443945,0.11838735561220118,0.0
-0.04220483210144426,0.033587429951122995,0.11835999707698788,0.0
-0.04220858719451275,0.03348416489173948,0.11834551314658084,0.0
-0.042143945949548005,0.033522520485224784,0.11845602017116788,0.0
-0.04218391086863409,0.033568922706714,0.11840237598447514,0.0
-0.04216191675209007,0.033532712880696404,0.11818967678423845,0.0
-0.04218873884543644,0.03360325498619735,0.11811779357407018,0.0
-0.04221234228758124,0.033610765172334335,0.1184935711018528,0.0
-0.04220349099677694,0.03356087607871009,0.11861292941724413,0.0
-0.04217881467089828,0.03354424638083534,0.11853058559067078,0.0
-0.04214206840301376,0.03356141252057702,0.11857940180056117,0.0
-0.042158429879955044,0.03352198404335786,0.11842973451968844,0.0
-0.04218096043836599,0.03353003067136177,0.11827014306427755,0.0
-0.042162989635823926,0.033540759508700314,0.11833022455337341,0.0
-0.042144750612348396,0.03356355828804473,0.11838547806566693,0.0
-0.042163526077690854,0.0335541705553735,0.11837743143766302,0.0
-0.04219383504317225,0.033541564171500705,0.11836670260032447,0.0
-0.04217398669409594,0.03353029889229523,0.11829401472735582,0.0
-0.04211953784460281,0.03358769817205646,0.11805851674777468,0.0
-0.04215762521715465,0.03351286453162009,0.11841981034515028,0.0
-0.042124365821405156,0.03361344738166897,0.1186966143484848,0.0
-0.042166476507958954,0.033536467973764895,0.11852843982320307,0.0
-0.04217398669409594,0.03352788490389406,0.11850403171825788,0.0
-0.04215387012408616,0.03359279436979227,0.11848954778785084,0.0
-0.04215896632182197,0.033564094729911655,0.1183768949957961,0.0
-0.04219759013624074,0.03357375068351635,0.11851797920679799,0.0
-0.04218659307796873,0.03358287019525411,0.11848311048544771,0.0
-0.042182569763966775,0.03356087607871009,0.11844341378729509,0.0
-0.04212999846100789,0.03358555240458875,0.11836911658872565,0.0
-0.0420693805300451,0.03351983827589015,0.1183398805069781,0.0
-0.04216272141489046,0.03356221718337741,0.11865584476659832,0.0
-0.04218283798490024,0.03356972736951439,0.11854238731174319,0.0
-0.04216030742648929,0.03356221718337741,0.1185016177298567,0.0
-0.042168622275426663,0.033520374717757075,0.11851905209053185,0.0
-0.0421350946587437,0.03356865448578054,0.11867113335980575,0.0
-0.042168085833559736,0.03351179164788624,0.11855070216068056,0.0
-0.042182569763966775,0.03356677693924629,0.11819423654010733,0.0
-0.04217559601969672,0.03351045054321892,0.11848901134598391,0.0
-0.04216325785675739,0.03349945348494691,0.1186013959171052,0.0
-0.04218712951983566,0.033521179380557466,0.11849544864838704,0.0
-0.042159234542755435,0.03357348246258288,0.11854641062574514,0.0
-0.04216030742648929,0.03356355828804473,0.11854936105601324,0.0
-0.04218069221743253,0.03352225226429132,0.11855606657934983,0.0
-0.04218954350823683,0.03358635706738914,0.11854346019547704,0.0
-0.04217908289183175,0.03359574480006037,0.11849035245065123,0.0
-0.042149846810084206,0.0335541705553735,0.11856008989335179,0.0
-0.04215816165902158,0.03359440369539305,0.11851502877652989,0.0
-0.042194907926906104,0.033514473857220874,0.11853058559067078,0.0
-0.04216191675209007,0.033493552624410707,0.11854801995134592,0.0
-0.04213858153087873,0.03351340097348702,0.11846353035730486,0.0
-0.04213428999594331,0.03362042112593903,0.1183701894724595,0.0
-0.04215869810088851,0.0335659722764459,0.11863599641752201,0.0
-0.04219168927570454,0.033568922706714,0.1186515532316629,0.0
-0.04217184092662823,0.0335571209856416,0.11826075533160632,0.0
-0.042146091717015714,0.03355873031124238,0.11814810253955157,0.0
-0.04216406251955778,0.03352788490389406,0.11879800186133407,0.0
-0.042160039205555826,0.03365931316129126,0.11870492919742218,0.0
-0.04216272141489046,0.033581529090586794,0.11874596700024212,0.0
-0.04215816165902158,0.03355524343910735,0.11863170488258659,0.0
-0.042127852693540184,0.03355738920657506,0.11845414262463363,0.0
-0.04213428999594331,0.033486847101074114,0.11850081306705632,0.0
-0.042211001182913925,0.03354692859016998,0.11856062633521872,0.0
-0.04221475627598242,0.033612910939802045,0.11843483071742425,0.0
-0.04221877958998437,0.033539418404032996,0.11851154190439486,0.0
-0.042203759217710406,0.03352868956669445,0.11858154756802888,0.0
-0.04218203332209985,0.03348121446147138,0.11847399097370995,0.0
-0.04218203332209985,0.03345063727505652,0.11851556521839682,0.0
-0.04222950842732292,0.03348282378707216,0.11861722095217955,0.0
-0.04218739774076912,0.03356221718337741,0.11869124992981553,0.0
-0.04219168927570454,0.03352064293869054,0.11854399663734397,0.0
-0.04219034817103722,0.033503745019882326,0.11851690632306414,0.0
-0.042184715531434484,0.03353110355509562,0.11849303465998587,0.0
-0.04216084386835622,0.03351366919442048,0.1185858391029643,0.0
-0.04214877392635035,0.033531371776029086,0.11856116277708564,0.0
-0.042153333682219234,0.03353083533416216,0.1182653150874752,0.0
-0.04214340950768108,0.033531371776029086,0.11831171730896442,0.0
-0.042206709647978506,0.033464316542663165,0.1188309930361501,0.0
-0.04220349099677694,0.03351581496188819,0.11878324970999357,0.0
-0.04220992829918007,0.03352734846202713,0.11867193802260614,0.0
-0.042210464741047,0.03352654379922674,0.11867140158073922,0.0
-0.042179619333698674,0.03353539509003104,0.11872129067436346,0.0
-0.04217505957782979,0.033553097671639644,0.11865986808060028,0.0
-0.042178278229031356,0.033510182322285455,0.11859495861470207,0.0
-0.042142604844880686,0.03354934257857115,0.11875455007011296,0.0
-0.04214421417048147,0.033581529090586794,0.11867730244127542,0.0
-0.04217291381036208,0.03349247974067685,0.11862017138244765,0.0
-0.04221475627598242,0.03351045054321892,0.11866201384806799,0.0
-0.04227269199761057,0.033536467973764895,0.11860810144044179,0.0
-0.0422311177529237,0.033566240497379364,0.11867140158073922,0.0
-0.042191421054771076,0.03359708590472769,0.11864189727805821,0.0
-0.04217505957782979,0.0335150102990878,0.1183465860303147,0.0
-0.042301391637491186,0.033556048101907744,0.11850510460199173,0.0
-0.04226303604400588,0.033494893729078025,0.11899004804969407,0.0
-0.042231385973857165,0.03349811238027959,0.11883447990828513,0.0
-0.04225123432293348,0.03347477715906825,0.11866201384806799,0.0
-0.042243724136796494,0.0334884564266749,0.11871109827889184,0.0
-0.04225016143919962,0.03347504538000171,0.1186818621971443,0.0
-0.04224801567173191,0.033488992868541824,0.11870224698808754,0.0
-0.042245869904264204,0.03349462550814456,0.11869473680195056,0.0
-0.042228435543589064,0.03350776833388428,0.11862446291738307,0.0
-0.042219852473718227,0.0335091094385516,0.11855472547468252,0.0
-0.042245869904264204,0.03348014157773752,0.11881141290800726,0.0
-0.04223031309012331,0.03352198404335786,0.11880685315213838,0.0
-0.04221770670625052,0.033536467973764895,0.11873309239543586,0.0
-0.042253916532268114,0.03349623483374534,0.118750526756111,0.0
-0.04227993396281409,0.03350776833388428,0.11874355301184095,0.0
-0.042262767823072415,0.03355926675310931,0.11874301656997402,0.0
-0.042257671625336606,0.0335091094385516,0.11873792037223821,0.0
-0.04221582915971627,0.03350991410135199,0.1187682293377196,0.0
-0.04214877392635035,0.033605668974598525,0.11893398987460016,0.0
-0.04229817298628962,0.03354558748550266,0.11878459081466089,0.0
-0.04232231287030135,0.03357884688125216,0.11865638120846525,0.0
-0.04229736832348923,0.033484701333606405,0.11837153057712682,0.0
-0.04228556660241683,0.03352439803175903,0.11834417204191353,0.0
-0.04229522255602152,0.03353754085749875,0.11894418227007178,0.0
-0.04225874450907046,0.033545855706436124,0.11892755257219703,0.0
-0.042218243148117444,0.03353298110162987,0.11885271893176066,0.0
-0.04224104192746186,0.03350267213614847,0.11872370466276463,0.0
-0.042272155555743644,0.033472899612534,0.11862741334765117,0.0
-0.04223379996225834,0.03355229300883925,0.11893935429326943,0.0
-0.04224131014839532,0.03353512686909758,0.11892352925819508,0.0
-0.042264108927739734,0.033512328089753164,0.11890099869978413,0.0
-0.042294686114154594,0.03342810671664557,0.11875696405851413,0.0
-0.04226598647427398,0.033524129810825566,0.11874408945370787,0.0
-0.04228288439308219,0.03347799581026981,0.11874569877930866,0.0
-0.042319630660966716,0.03348631065920719,0.11873175129076854,0.0
-0.042284493718682974,0.03354478282270227,0.11884735451309139,0.0
-0.04226598647427398,0.03352788490389406,0.11881811843134385,0.0
-0.042239432601861075,0.033503745019882326,0.11867944820874313,0.0
-0.04227537420694521,0.0335002581477473,0.11848606091571581,0.0
-0.04232204464936789,0.03345734279839311,0.1188739083855043,0.0
-0.0423212399865675,0.03350696367108389,0.11906756389946507,0.0
-0.042247479229864986,0.033554706997240426,0.1190082870731696,0.0
-0.042267059358007834,0.03352734846202713,0.11876849755865307,0.0
-0.04228878525361839,0.03353217643882948,0.11871646269756111,0.0
-0.04229736832348923,0.03348952931040875,0.11874650344210905,0.0
-0.04227403310227789,0.03357536000911713,0.1187564276166472,0.0
-0.04222763088078867,0.03358501596272182,0.1188435994200229,0.0
-0.0422702780092094,0.03350186747334808,0.11880792603587223,0.0
-0.042294149672287666,0.03346887629853205,0.11877386197732234,0.0
-0.04227778819534638,0.0334943572872111,0.11878834590772938,0.0
-0.04226035383467124,0.0335179607293559,0.11865128501072944,0.0
-0.042240237264661466,0.033569190927647465,0.11857430560282536,0.0
-0.04221770670625052,0.03361961646313864,0.11879934296600139,0.0
-0.042306487835226995,0.03358340663712104,0.11891950594419312,0.0
-0.04231614378883169,0.033571336695115174,0.1189034126881853,0.0
-0.04228127506748141,0.03357616467191752,0.11882831082681547,0.0
-0.042267059358007834,0.03354263705523456,0.11882750616401508,0.0
-0.04224908855546577,0.033558193869375454,0.1189388178514025,0.0
-0.04223245885759102,0.03356972736951439,0.11893747674673519,0.0
-0.04222682621798828,0.03353915018309953,0.1187269233139662,0.0
-0.04225659874160275,0.03352520269455942,0.11876796111678614,0.0
-0.042278861079080236,0.03357106847418171,0.11917404761005015,0.0
-0.04226089027653817,0.03361130161420126,0.11888651476937709,0.0
-0.04225230720666733,0.03358769817205646,0.11889590250204832,0.0
-0.04220966007824661,0.033621762230606346,0.11900453198010111,0.0
-0.04225284364853426,0.033574287125383274,0.11905898082959424,0.0
-0.04228342083494912,0.03366655512649478,0.11893479453740055,0.0
-0.04226652291614091,0.033623103335273664,0.11885057316429296,0.0
-0.04226464536960666,0.033601377439663106,0.11889053808337904,0.0
-0.04229280856762035,0.03356945914858093,0.11890073047885066,0.0
-0.04228422549774951,0.033572141357915565,0.11884628162935754,0.0
-0.042268668683608616,0.03364321990528344,0.11880256161720296,0.0
-0.042268668683608616,0.033629004195809865,0.11900024044516569,0.0
-0.042299245870023476,0.033572141357915565,0.1190112375034377,0.0
-0.04232284931216828,0.03354263705523456,0.11895330178180955,0.0
-0.042312925137630124,0.033586625288322604,0.11903591382931636,0.0
-0.04232526330056945,0.03355336589257311,0.11884842739682525,0.0
-0.04231185225389627,0.03361049695140087,0.11871673091849458,0.0
-0.042344306986845374,0.03354263705523456,0.11909197200441027,0.0
-0.04233170060297258,0.033581529090586794,0.11901016461970385,0.0
-0.0423153391260313,0.03360030455592925,0.11911530722562161,0.0
-0.042254721195068505,0.03361827535847132,0.11910377372548267,0.0
-0.04229951409095694,0.033600572776862715,0.11905093420159032,0.0
-0.042294686114154594,0.03359815878846154,0.11916063656337697,0.0
-0.04239553718513694,0.0335630218461778,0.11906112659706194,0.0
-0.04237086085925828,0.033639196591281485,0.1190171383639739,0.0
-0.04233170060297258,0.033643488126216904,0.11900694596850228,0.0
-0.04230031875375733,0.03362337155620713,0.11915258993537306,0.0
-0.042327677288970626,0.03360164566059657,0.1192668520530286,0.0
-0.04236817864992364,0.033629004195809865,0.11881838665227731,0.0
-0.042334919254174146,0.03364187880061612,0.11849678975305436,0.0
-0.04233760146350878,0.03362793131207601,0.11893264876993284,0.0
-0.042331968823906045,0.03366360469622668,0.11925049057608732,0.0
-0.04233679680070839,0.03364026947501534,0.11917565693565094,0.0
-0.04238534478966532,0.03355577988097428,0.119049593096923,0.0
-0.04235289005671621,0.03361049695140087,0.11902733075944552,0.0
-0.04236522821965554,0.03361827535847132,0.11900909173596999,0.0
-0.04235262183578275,0.03364590211461808,0.11910886992321848,0.0
-0.04235798625445202,0.0336051325327316,0.11907319653906781,0.0
-0.04231426624229744,0.03367647930103294,0.1191729747263163,0.0
-0.042339210789109565,0.03362068934687249,0.11909492243467837,0.0
-0.04233572391697454,0.033599768114062324,0.1191064559348173,0.0
-0.04232150820750096,0.03357106847418171,0.11911584366748854,0.0
-0.042390977429268055,0.03355068368323847,0.1190925084462772,0.0
-0.04237381128952638,0.03359306259072573,0.11907373298093474,0.0
-0.042395268964203474,0.033569995590447856,0.11897985565422245,0.0
-0.04237112908019174,0.033566240497379364,0.11908714402760792,0.0
-0.04238266258033068,0.03354263705523456,0.11900345909636725,0.0
-0.04237595705699409,0.03360969228860048,0.11893452631646709,0.0
-0.04238266258033068,0.03353163999696255,0.11911879409775664,0.0
-0.04236951975459096,0.033603523207130816,0.11914668907483686,0.0
-0.04236495999872208,0.03359654946286076,0.11909787286494647,0.0
-0.042308633602694705,0.03356865448578054,0.1191102110278858,0.0
-0.042338406126309173,0.03351340097348702,0.11885701046669608,0.0
-0.04241806774354789,0.033601377439663106,0.11898119675888977,0.0
-0.04239124565020152,0.03359789056752808,0.11944736474124966,0.0
-0.04237112908019174,0.03359708590472769,0.1193207644606548,0.0
-0.04239956049913889,0.03358421129992143,0.11904396045732027,0.0
-0.0423928549758023,0.033556852764708135,0.11924298038995033,0.0
-0.04240063338287275,0.033554706997240426,0.11924378505275073,0.0
-0.04240224270847353,0.03356945914858093,0.11913917888869988,0.0
-0.04239124565020152,0.03355953497404277,0.11923225155261179,0.0
-0.04244220762755962,0.03349623483374534,0.11916465987737893,0.0
-0.04244301229036001,0.03349516195001149,0.11913917888869988,0.0
-0.04241082577834437,0.03352520269455942,0.11919496884286032,0.0
-0.04238909988273381,0.033591721486058414,0.1191914819707253,0.0
-0.04236361889405476,0.033582333753387185,0.11914373864456876,0.0
-0.04234913496364772,0.03359708590472769,0.11914722551670379,0.0
-0.04238749055713303,0.033548001473903834,0.11920355191273117,0.0
-0.04238775877806649,0.03354344171803495,0.11919094552885837,0.0
-0.04237381128952638,0.03360835118393316,0.11920516123833196,0.0
-0.04236791042899018,0.033572946020715956,0.11910913814415194,0.0
-0.042336260358841464,0.03357831043938523,0.11892540680472932,0.0
-0.0423692515336575,0.033562753625244336,0.11929957500691117,0.0
-0.04235208539391582,0.03359198970699188,0.1194382452295119,0.0
-0.042364691777788614,0.033564094729911655,0.11929957500691117,0.0
-0.04236495999872208,0.03356221718337741,0.11916358699364507,0.0
-0.042334114591373755,0.033587429951122995,0.11931888691412056,0.0
-0.04234323410311152,0.03357884688125216,0.11935053698426927,0.0
-0.042369787975524424,0.03353324932256333,0.11927087536703056,0.0
-0.04233760146350878,0.03360298676526389,0.11933176151892681,0.0
-0.04234859852178079,0.03351876539215629,0.11926336518089357,0.0
-0.04236898331272403,0.033592526148858805,0.11935134164706966,0.0
-0.04236308245218783,0.03359494013725998,0.11933122507705989,0.0
-0.042363350673121296,0.03358877105579031,0.11932291022812251,0.0
-0.04232526330056945,0.03359574480006037,0.11932720176305793,0.0
-0.04236388711498822,0.03358421129992143,0.11932693354212447,0.0
-0.04231507090509783,0.0335777739975183,0.11903698671305021,0.0
-0.04225740340440314,0.03353405398536372,0.11925826898315776,0.0
-0.042400365161939284,0.033532712880696404,0.11952246660261949,0.0
-0.04238722233619956,0.033578042218451766,0.11923707952941413,0.0
-0.04235905913818588,0.033558193869375454,0.1192343973200795,0.0
-0.04235798625445202,0.03359708590472769,0.11925263634355503,0.0
-0.04235852269631895,0.03354317349710149,0.1192166947384709,0.0
-0.04237300662672599,0.033577237555651375,0.119219645168739,0.0
-0.04238319902219761,0.03357267779978249,0.11915849079590926,0.0
-0.0423330417076399,0.0336560945100897,0.11930842629771547,0.0
-0.042361204905653586,0.03362632198647523,0.11922930112234369,0.0
-0.042361741347520514,0.033599768114062324,0.11923868885501492,0.0
-0.04235771803351856,0.033558998532175845,0.11929474703010882,0.0
-0.04240572958060856,0.03350857299668467,0.1192003332615296,0.0
-0.04240572958060856,0.03362122578873942,0.11921830406407168,0.0
-0.042366837545256324,0.033645097451817686,0.11915554036564116,0.0
-0.042376493498861016,0.033603523207130816,0.11922044983153939,0.0
-0.04241404442954593,0.03350857299668467,0.11933819882132994,0.0
-0.042417263080747496,0.03359011216045763,0.1193894290196215,0.0
-0.042433892778622244,0.03354317349710149,0.11930225721624581,0.0
-0.04244140296475923,0.03354934257857115,0.11921857228500514,0.0
-0.04241163044114476,0.03359574480006037,0.11931218139078396,0.0
-0.042382126138463753,0.03358930749765724,0.11925344100635542,0.0
-0.042379980370996044,0.033581529090586794,0.11906005371332809,0.0
-0.04243603854608995,0.0335091094385516,0.11895947086327921,0.0
-0.042441939406626154,0.03353405398536372,0.1194315397061753,0.0
-0.04240814356900973,0.03361612959100361,0.11951683396301675,0.0
-0.04238829521993342,0.03352520269455942,0.11954499716103044,0.0
-0.04239741473167118,0.03354210061336763,0.11924378505275073,0.0
-0.04242477326688448,0.03355363411350657,0.11922822823860983,0.0
-0.04237542061512716,0.03356382650897819,0.11924941769235346,0.0
-0.04233974723097649,0.03351983827589015,0.1192225955990071,0.0
-0.04238266258033068,0.033553097671639644,0.11928938261143955,0.0
-0.04241243510394515,0.03353110355509562,0.11932103268158827,0.0
-0.042447035604361964,0.03351366919442048,0.11930788985584855,0.0
-0.04238480834779839,0.03355953497404277,0.11926175585529279,0.0
-0.04237461595232677,0.03355926675310931,0.11924834480861961,0.0
-0.042403315592207384,0.033577237555651375,0.11922715535487598,0.0
-0.04242128639474945,0.033564899392712046,0.11907346476000127,0.0
-0.04242691903435219,0.03357080025324825,0.1190267943175786,0.0
-0.04241806774354789,0.033631954626077966,0.11920060148246306,0.0
-0.04244033008102537,0.03353003067136177,0.11941732399670173,0.0
-0.04239795117353811,0.03348201912427177,0.11937655441481525,0.0
-0.04236656932432286,0.03354263705523456,0.11930923096051586,0.0
-0.042399828720072356,0.033510986985085846,0.11930440298371352,0.0
-0.04243281989488839,0.033512328089753164,0.11922500958740827,0.0
-0.04236871509179057,0.03359306259072573,0.11924995413422039,0.0
-0.042398219394471574,0.03352734846202713,0.11918021669151982,0.0
-0.04237676171979448,0.03352359336895864,0.11916170944711083,0.0
-0.04238775877806649,0.03353673619469836,0.11925853720409123,0.0
-0.04241699485981403,0.03353083533416216,0.11929018727423994,0.0
-0.042406266022475485,0.03351983827589015,0.11943502657831033,0.0
-0.04242638259248526,0.033502940357081935,0.11926872959956285,0.0
-0.04243416099955571,0.033513937415353946,0.11900345909636725,0.0
-0.042394732522336546,0.03349301618254378,0.11907426942280167,0.0
-0.04242289572035023,0.03347182672880015,0.11898602473569211,0.0
-0.04239205031300191,0.033548806136704225,0.11888222323444167,0.0
-0.04235423116138353,0.033535663310964504,0.1189838789682244,0.0
-0.04238775877806649,0.033495698391878416,0.11934973232146888,0.0
-0.0423507442892485,0.033487651763874506,0.11932049623972134,0.0
-0.042390172766467664,0.03344956439132266,0.11909975041148071,0.0
-0.04245964198823476,0.03342381518171015,0.11917056073791513,0.0
-0.04245535045329934,0.033436689786516406,0.11926953426236324,0.0
-0.04240572958060856,0.03352064293869054,0.11922903290141022,0.0
-0.04242423682501755,0.03348711532200758,0.11921186676166855,0.0
-0.04241189866207822,0.033530567113228694,0.11926202407622626,0.0
-0.042452936464898165,0.03350642722921696,0.11919818749406189,0.0
-0.04243952541822498,0.03353539509003104,0.11920355191273117,0.0
-0.042435502104223026,0.03350186747334808,0.11918155779618714,0.0
-0.042386685894332636,0.0334884564266749,0.11921454897100318,0.0
-0.042390172766467664,0.03340879480943618,0.11917753448218518,0.0
-0.04243818431355766,0.03342381518171015,0.11916358699364507,0.0
-0.04240385203407431,0.033454928809991936,0.11921749940127128,0.0
-0.04240277915034046,0.03345868390306043,0.11921240320353547,0.0
-0.04242933302275336,0.03343856733305065,0.11918987264512451,0.0
-0.04242933302275336,0.03340638082103501,0.11938084594975067,0.0
-0.042415653755146714,0.0334160367746397,0.11927892199503447,0.0
-0.04240304737127392,0.03343320291438138,0.11911235679535351,0.0
-0.04238132147566336,0.033436689786516406,0.11915339459817345,0.0
-0.042405461359675094,0.03340477149543423,0.11891789661859234,0.0
-0.04238641767339917,0.03344205420518568,0.1190267943175786,0.0
-0.04237542061512716,0.0334522466006573,0.11940284006629469,0.0
-0.04239044098740113,0.03347477715906825,0.11917753448218518,0.0
-0.04237032441739135,0.03348336022893909,0.11924405327368419,0.0
-0.042418604185414814,0.03344661396105456,0.11938781969402072,0.0
-0.04243630676702342,0.03345787924026004,0.11933390728639452,0.0
-0.042406266022475485,0.03342891137944596,0.11925129523888771,0.0
-0.04233572391697454,0.03349543017094495,0.11931271783265089,0.0
-0.042405461359675094,0.033445272856387244,0.1193473183330677,0.0
-0.04238480834779839,0.033478800473070204,0.11933900348413033,0.0
-0.04238561301059878,0.033466462310130875,0.11924593082021843,0.0
-0.042403315592207384,0.033464316542663165,0.11924780836675268,0.0
-0.042415117313279786,0.03344849150758881,0.11921991338967246,0.0
-0.042416458417947105,0.0334463457401211,0.11929528347197575,0.0
-0.04239446430140308,0.033429984263179814,0.11933739415852955,0.0
-0.042417263080747496,0.033428643158512496,0.11937977306601681,0.0
-0.04244006186009191,0.0334640483217297,0.11905388463185843,0.0
-0.04242986946462029,0.03349972170588037,0.11924593082021843,0.0
-0.04243657498795688,0.03346753519386473,0.11942697995030642,0.0
-0.04243442922048917,0.03349167507787646,0.11936448447280938,0.0
-0.042420213511015596,0.03352734846202713,0.11935804717040625,0.0
-0.0424290648018199,0.03351152342695277,0.11930386654184659,0.0
-0.042420213511015596,0.03346538942639702,0.11934114925159804,0.0
-0.04241270332487861,0.03343132536784713,0.11934624544933385,0.0
-0.04240277915034046,0.033454124147191545,0.11935321919360391,0.0
-0.04244167118569269,0.03341147701877082,0.11933417550732799,0.0
-0.042438452534491126,0.03344875972852227,0.11928804150677223,0.0
-0.042432015232088,0.03336748878568277,0.1192284964595433,0.0
-0.04237166552205867,0.03346485298453009,0.11917994847058636,0.0
-0.042379980370996044,0.033419791867708194,0.1192188405059386,0.0
-0.0424349656623561,0.033291314040579084,0.11934865943773502,0.0
-0.04237676171979448,0.03348121446147138,0.11928133598343564,0.0
-0.04243657498795688,0.033394310879029145,0.11917538871471747,0.0
-0.042439793639158445,0.033443931751719926,0.11948625677660189,0.0
-0.04244837670902928,0.03341818254210741,0.11935670606573894,0.0
-0.04243308811582185,0.033440176658651434,0.11918155779618714,0.0
-0.04240680246434241,0.03343186180971406,0.11921106209886816,0.0
-0.04238614945246571,0.03343615334464948,0.11928965083237301,0.0
-0.042438988976358054,0.03347692292653596,0.11904101002705217,0.0
-0.04247198015117409,0.03343856733305065,0.11915473570284077,0.0
-0.042474125918641796,0.03342247407704283,0.11944253676444731,0.0
-0.04246581106970442,0.033370975657817804,0.1192137443082028,0.0
-0.04246044665103515,0.03340611260010155,0.11916144122617736,0.0
-0.042466079290637886,0.03341952364677473,0.11920677056393274,0.0
-0.04239339141766923,0.03349838060121305,0.11926202407622626,0.0
-0.04240599780154202,0.0334669987519978,0.1193030618790462,0.0
-0.04241753130168096,0.0334640483217297,0.11929501525104229,0.0
-0.042404120255007775,0.03346029322866121,0.11921106209886816,0.0
-0.04239151387113498,0.0335091094385516,0.11924727192488575,0.0
-0.04242557792968487,0.033427033832911714,0.11911262501628697,0.0
-0.04239070920833459,0.03344259064705261,0.11909626353934569,0.0
-0.042393927859536155,0.03337848584395479,0.11929716101851,0.0
-0.04240868001087666,0.03341228168157121,0.11928857794863916,0.0
-0.042407070685275876,0.033453319484391154,0.11923386087821257,0.0
-0.04241699485981403,0.033462170775195456,0.11911396612095429,0.0
-0.04238856344086688,0.033407453704768865,0.11895222889807569,0.0
-0.04231480268416437,0.03343400757718177,0.11940149896162737,0.0
-0.04242209105754984,0.033443127088919535,0.11923707952941413,0.0
-0.0424290648018199,0.03343642156558294,0.11917619337751786,0.0
-0.04241109399927783,0.033456269914659255,0.11939667098482502,0.0
-0.04233947901004303,0.033491406856943,0.1194559478111205,0.0
-0.042364691777788614,0.033468608077598584,0.11948679321846882,0.0
-0.04239929227820543,0.03342113297237551,0.1191877268776568,0.0
-0.042408411789943194,0.03338170449515635,0.11908097494613826,0.0
-0.042378639266328726,0.033453319484391154,0.11920891633140045,0.0
-0.04241619019701364,0.03345385592625808,0.11919630994752764,0.0
-0.042390172766467664,0.03351420563628741,0.11927087536703056,0.0
-0.04238909988273381,0.03350991410135199,0.11929206482077419,0.0
-0.0423987558363385,0.03344661396105456,0.11927543512289944,0.0
-0.042376493498861016,0.03346807163573166,0.11936716668214402,0.0
-0.04237756638259487,0.03349623483374534,0.11933793060039648,0.0
-0.04242504148781794,0.03345278304252423,0.11926363340182704,0.0
-0.04243416099955571,0.03343347113531484,0.11926712027396207,0.0
-0.04239661006887079,0.03347906869400367,0.11893828140953558,0.0
-0.04244113474382576,0.03349677127561227,0.11919899215686228,0.0
-0.042445694499694646,0.03345305126345769,0.11966757412762334,0.0
-0.04241753130168096,0.03345948856586082,0.11945433848551971,0.0
-0.042400365161939284,0.03343132536784713,0.11939264767082307,0.0
-0.042395268964203474,0.03343052070504674,0.1193363212747957,0.0
-0.04242504148781794,0.03341576855370624,0.11934114925159804,0.0
-0.042432551673954925,0.03343427579811523,0.11943583124111072,0.0
-0.0424379160926242,0.03346807163573166,0.11938272349628491,0.0
-0.042426650813418725,0.033421401193308976,0.11933149329799335,0.0
-0.04237381128952638,0.03341791432117395,0.1193717264380129,0.0
-0.04243308811582185,0.03344661396105456,0.1194382452295119,0.0
-0.04244435339502733,0.03341389100717199,0.11934758655400117,0.0
-0.04244033008102537,0.03338438670449099,0.11933658949572916,0.0
-0.042415653755146714,0.03343856733305065,0.11936448447280938,0.0
-0.04242691903435219,0.03339055578596065,0.11934651367026732,0.0
-0.042413507987679004,0.033365074797281596,0.11924137106434955,0.0
-0.04240063338287275,0.03337955872768864,0.11936663024027709,0.0
-0.04238749055713303,0.03341791432117395,0.11937011711241212,0.0
-0.042401974487540066,0.03340638082103501,0.1191582225749758,0.0
-0.04241082577834437,0.033328596750330536,0.11944495075284849,0.0
-0.042419408848215205,0.03335005442500763,0.11942349307817139,0.0
-0.04243630676702342,0.03338760535569255,0.11918692221485641,0.0
-0.0424076071271428,0.03336614768101545,0.11937279932174676,0.0
-0.042398219394471574,0.03336829344848316,0.11949054831153731,0.0
-0.04240733890620934,0.03340638082103501,0.11937011711241212,0.0
-0.042404120255007775,0.03336775700661623,0.11934088103066458,0.0
-0.04242826013901951,0.03339109222782758,0.11930493942558044,0.0
-0.042448644929962746,0.03337204854155166,0.1192461990411519,0.0
-0.042417263080747496,0.03337124387875127,0.11933578483292877,0.0
-0.042415117313279786,0.03335649172741076,0.11941195957803245,0.0
-0.042420213511015596,0.03334281245980411,0.11936609379841016,0.0
-0.04240787534807627,0.033430788925980205,0.11936260692627514,0.0
-0.042408411789943194,0.03335756461114461,0.1193872832521538,0.0
-0.04238641767339917,0.033413354565305066,0.11956162685890519,0.0
-0.042393927859536155,0.03343239825158099,0.11955465311463513,0.0
-0.042335992137908,0.03342327873984322,0.11935053698426927,0.0
-0.042444889836894255,0.03339913885583149,0.11928696862303838,0.0
-0.042438988976358054,0.03342971604224635,0.11925129523888771,0.0
-0.04242557792968487,0.03340557615823462,0.11896885859595044,0.0
-0.04239956049913889,0.03338760535569255,0.11952327126541988,0.0
-0.042394732522336546,0.03338438670449099,0.11965764995308519,0.0
-0.04239365963860269,0.03337634007648708,0.11960534687105977,0.0
-0.0423958054060704,0.03334576289007221,0.11955894464957055,0.0
-0.0423751523941937,0.03339377443716222,0.11943717234577804,0.0
-0.04235718159165163,0.03334147135513679,0.11951790684675061,0.0
-0.042401169824739675,0.03336024682047925,0.11949081653247078,0.0
-0.042414312650479395,0.033366415901948915,0.1195031546954101,0.0
-0.04239741473167118,0.0333865324719587,0.11949403518367234,0.0
-0.04242101817381599,0.03338975112316026,0.11950771445127899,0.0
-0.042429601243686825,0.03337285320435205,0.1194736503927291,0.0
-0.04242209105754984,0.03336882989035009,0.11957450146371144,0.0
-0.04240143804567314,0.03339082400689412,0.1196021282198582,0.0
-0.042398219394471574,0.03336882989035009,0.11954285139356273,0.0
-0.04240090160380621,0.033348176878473385,0.11949269407900502,0.0
-0.042379980370996044,0.03336695234381584,0.11922581425020866,0.0
-0.04235986380098627,0.03343427579811523,0.11965416308095016,0.0
-0.04239339141766923,0.03340182106516613,0.11984781859491093,0.0
-0.04236522821965554,0.033446077519187635,0.11974079844245893,0.0
-0.04236737398712325,0.033406649041968474,0.11949349874180541,0.0
-0.042377834603528335,0.03335354129714266,0.11941035025243167,0.0
-0.04236415533592169,0.033384923146357916,0.1194972538348739,0.0
-0.042337869684442246,0.033370170995017406,0.11954982513783279,0.0
-0.04230702427709392,0.03330874840125422,0.11954499716103044,0.0
-0.04238749055713303,0.03335461418087651,0.1193872832521538,0.0
-0.042373543068592916,0.03339189689062797,0.11924646726208536,0.0
-0.042377834603528335,0.03336239258794696,0.11966113682522021,0.0
-0.04237542061512716,0.03336882989035009,0.11960320110359206,0.0
-0.04237595705699409,0.033365611239148524,0.11946050756698938,0.0
-0.04236871509179057,0.03335005442500763,0.11956779594037485,0.0
-0.042317484893499006,0.033354077739009586,0.11960427398732591,0.0
-0.04235181717298236,0.033292118703379475,0.11948732966033575,0.0
-0.042349403184581184,0.033381168053289424,0.11920757522673313,0.0
-0.04235986380098627,0.03333557049460059,0.1194108866942986,0.0
-0.04236308245218783,0.03335354129714266,0.11974669930299513,0.0
-0.04235262183578275,0.0333436171226045,0.11963672872027502,0.0
-0.042370592638324815,0.03331491748272389,0.11962814565040418,0.0
-0.04236227778938744,0.03335273663434227,0.11962331767360183,0.0
-0.0423418929984442,0.03334200779700372,0.1195726239171772,0.0
-0.04236576466152247,0.0333141128199235,0.1195511662425001,0.0
-0.04235262183578275,0.03332752386659668,0.1195932769290539,0.0
-0.042351548952048894,0.03333396116899981,0.11974053022152546,0.0
-0.04234591631244616,0.03335354129714266,0.119740262000592,0.0
-0.04236710576618979,0.03335971037861232,0.11947311395086217,0.0
-0.04231051114922895,0.03334120313420333,0.11951334709088172,0.0
-0.042311584032962805,0.03333047429686478,0.11955036157969971,0.0
-0.04233223704483951,0.03322828212121512,0.1195090555559463,0.0
-0.042284493718682974,0.03336078326234618,0.11953212255622418,0.0
-0.04232338575403521,0.03329775134298221,0.11964289780174468,0.0
-0.04234564809151269,0.033306602633786514,0.11961795325493256,0.0
-0.04222092535745208,0.033338789145802156,0.11925612321569005,0.0
-0.042248820334532304,0.033366415901948915,0.11944790118311659,0.0
-0.04225740340440314,0.033359978599545786,0.12000580072472104,0.0
-0.0422820797302818,0.03335166375060841,0.11981643674569568,0.0
-0.04225874450907046,0.03338760535569255,0.11979283330355088,0.0
-0.042294149672287666,0.03335220019247534,0.11959971423145703,0.0
-0.042286103044283756,0.03337043921595087,0.11961875791773295,0.0
-0.04226518181147359,0.03339109222782758,0.11969895597683859,0.0
-0.042257671625336606,0.03338894646035987,0.11963297362720653,0.0
-0.04231560734696476,0.0333406666923364,0.11960266466172513,0.0
-0.042282347951215264,0.03339162866969451,0.11970136996523977,0.0
-0.042258476288137,0.033381972716089815,0.11964772577854703,0.0
-0.04232848195177102,0.03334200779700372,0.11958388919638267,0.0
-0.042307292498027387,0.03333127895966517,0.11958952183598541,0.0
-0.042285298381483365,0.03334764043660646,0.1196206354642672,0.0
-0.04228127506748141,0.03330338398258495,0.11969037290696775,0.0
-0.04227537420694521,0.0333983341930311,0.11975903746593446,0.0
-0.04226598647427398,0.0334130863443716,0.11965094442974859,0.0
-0.04227108267200979,0.03334978620407417,0.11945943468325552,0.0
-0.04226652291614091,0.03331920901765931,0.11926819315769592,0.0
-0.04226759579987476,0.033329937854997854,0.11970673438390904,0.0
-0.04225928095093739,0.033317599692058525,0.11974240776805971,0.0
-0.042253916532268114,0.03333262006433249,0.11958040232424764,0.0
-0.042246674567064595,0.03334549466913875,0.11978505489648043,0.0
-0.04225874450907046,0.033333692948066346,0.11974267598899317,0.0
-0.042236482171592975,0.033305261529119196,0.11971156236071138,0.0
-0.042246674567064595,0.03330204287791763,0.1197314107097877,0.0
-0.042259012730003924,0.03337741296022093,0.11967025633695798,0.0
-0.04226035383467124,0.03330204287791763,0.1196715974416253,0.0
-0.04222012069465169,0.033303652203518413,0.11972819205858613,0.0
-0.04223245885759102,0.03325376310989417,0.11970539327924172,0.0
-0.04220563676424465,0.03336882989035009,0.11964504356921239,0.0
-0.04226303604400588,0.03331518570365735,0.11949054831153731,0.0
-0.04230756071896085,0.03326556483096657,0.11965174909254898,0.0
-0.042279397520947164,0.033371780320618195,0.11991728781667803,0.0
-0.04229227212575342,0.033318404354858916,0.11983655331570546,0.0
-0.04228342083494912,0.03332725564566322,0.11973194715165462,0.0
-0.04227993396281409,0.03336158792514657,0.11941544645016748,0.0
-0.04224506524146381,0.03330848018032076,0.1193923794498896,0.0
-0.0422673275789413,0.03331652680832467,0.11995913028229836,0.0
-0.04229307678855381,0.0333347658318002,0.11996422648003417,0.0
-0.042277251753479454,0.03328434029630903,0.11977620360567613,0.0
-0.0422643771486732,0.03330794373845383,0.11965174909254898,0.0
-0.04227644709067906,0.03330767551752037,0.11966033216241982,0.0
-0.04221126940384739,0.03338438670449099,0.1196863495929658,0.0
-0.04225659874160275,0.03329399624991372,0.11954767937036508,0.0
-0.04232553152150292,0.033266637714700426,0.11949993604420854,0.0
-0.04229146746295303,0.0333406666923364,0.11973757979125736,0.0
-0.042274301323211354,0.03334200779700372,0.11965791817401865,0.0
-0.04224613812519767,0.03331089416872193,0.11963082785973882,0.0
-0.04224479702053035,0.03335139552967495,0.11968420382549809,0.0
-0.04228932169548532,0.03332323233166126,0.1195970320221224,0.0
-0.04225498941600197,0.03333557049460059,0.11972872850045306,0.0
-0.04223594572972605,0.03328246274977478,0.119710757697911,0.0
-0.042285298381483365,0.033286217842843274,0.11966623302295602,0.0
-0.04226008561373778,0.03330713907565344,0.11954124206796195,0.0
-0.04227483776507828,0.03330204287791763,0.11930628053024776,0.0
-0.04226249960213895,0.033268783482168135,0.11968232627896384,0.0
-0.04222146179931901,0.03324357071442255,0.11984728215304401,0.0
-0.042277251753479454,0.033291314040579084,0.1197137081281791,0.0
-0.042285298381483365,0.033319745459526234,0.11955223912623396,0.0
-0.042289589916418784,0.03326851526123467,0.11962465877826915,0.0
-0.04229146746295303,0.03329775134298221,0.11985157368797943,0.0
-0.042328213730837554,0.03331867257579238,0.11974964973326323,0.0
-0.042329018393637945,0.03332913319219746,0.11970378395364094,0.0
-0.04231104759109588,0.03331062594778847,0.1197971248384863,0.0
-0.04230756071896085,0.03329050937777869,0.11972872850045306,0.0
-0.04230970648642856,0.03325161734242646,0.11946238511352363,0.0
-0.04228932169548532,0.03327843943577283,0.11943395369457648,0.0
-0.042296295439755376,0.03330579797098612,0.11972282763991686,0.0
-0.04230809716082778,0.033351931971541876,0.11977218029167418,0.0
-0.0423271408471037,0.033276025447371654,0.11957074637064295,0.0
-0.04232231287030135,0.03328514495910942,0.11960990662692865,0.0
-0.04229602721882191,0.033278171214839364,0.11959113116158619,0.0
-0.04228771236988454,0.03323257365615054,0.11961527104559792,0.0
-0.042267059358007834,0.03324705758655758,0.11962009902240027,0.0
-0.042268668683608616,0.0332720021333697,0.11934785477493463,0.0
-0.0422820797302818,0.03330848018032076,0.11938460104281916,0.0
-0.04228771236988454,0.033265833051900034,0.11981670496662915,0.0
-0.042290394579219175,0.033283267412575174,0.11971263524444524,0.0
-0.04230621961429353,0.03328729072657713,0.11961017484786211,0.0
-0.0423330417076399,0.03334415356447143,0.11959676380118893,0.0
-0.042380785033796435,0.03327361145897048,0.11967615719749418,0.0
-0.04231614378883169,0.033292923366179866,0.11970056530243937,0.0
-0.042275910648812136,0.03331357637805657,0.11966462369735524,0.0
-0.042321776428434425,0.03330794373845383,0.1196530901972163,0.0
-0.04227403310227789,0.033295069133647576,0.11964987154601474,0.0
-0.04221851136905091,0.03326824704030121,0.11962734098760379,0.0
-0.042304342067759286,0.03330204287791763,0.11958979005691887,0.0
-0.042300586974690794,0.03326717415656735,0.11953185433529072,0.0
-0.04230407384682582,0.033261541516964616,0.11986149786251758,0.0
-0.042264108927739734,0.03323766985388635,0.11980919478049216,0.0
-0.04228637126521722,0.03322774567934819,0.11949349874180541,0.0
-0.04224908855546577,0.0332779029939059,0.11956028575423787,0.0
-0.042275910648812136,0.033293459808046794,0.11979632017568591,0.0
-0.04225820806720353,0.033274684342704336,0.11961285705719675,0.0
-0.04231212047482973,0.03326046863323076,0.1193923794498896,0.0
-0.042301391637491186,0.03330204287791763,0.1198059761292906,0.0
-0.042246674567064595,0.03336292902981389,0.11982716558303423,0.0
-0.042253916532268114,0.0333436171226045,0.11970458861644133,0.0
-0.04225203898573387,0.033281926307907855,0.11971799966311451,0.0
-0.04225820806720353,0.03329533735458104,0.11971343990724563,0.0
-0.04226947334640901,0.03332510987819551,0.11967562075562725,0.0
-0.04228422549774951,0.03325188556335992,0.11965764995308519,0.0
-0.042265718253340516,0.03329667845924836,0.11962626810386993,0.0
-0.0422222664621194,0.033280853424174,0.11966355081362139,0.0
-0.04225338009040119,0.033245448260956795,0.11962895031320457,0.0
-0.04228556660241683,0.0331759790391897,0.11955572599836899,0.0
-0.04224131014839532,0.033241156726021376,0.11967723008122803,0.0
-0.042238627939060684,0.033230159667749365,0.11964745755761357,0.0
-0.04224184659026225,0.03324571648189026,0.11963082785973882,0.0
-0.042244528799596885,0.033194486283598695,0.11966435547642178,0.0
-0.04225874450907046,0.033244643598156404,0.11983950374597356,0.0
-0.042235141066925656,0.033229355004948974,0.11945755713672128,0.0
-0.0421565523334208,0.0332387427376202,0.11910779703948463,0.0
-0.042185520194234875,0.03330257931978456,0.11980195281528865,0.0
-0.04225525763693543,0.03330338398258495,0.11986069319971719,0.0
-0.042269205125475544,0.03320011892320143,0.11977969047781116,0.0
-0.042211001182913925,0.03321540751640886,0.11981804607129647,0.0
-0.04221770670625052,0.03326824704030121,0.11974830862859591,0.0
-0.04221261050851471,0.0332572499820292,0.11969064112790122,0.0
-0.04215682055435426,0.033246252923757186,0.11978183624527887,0.0
-0.042177473566230965,0.03324303427255562,0.11973087426792077,0.0
-0.04223675039252644,0.03326100507509769,0.1196412884761439,0.0
-0.04220831897357929,0.03328031698230707,0.11958710784758424,0.0
-0.042188470624502976,0.0332121888652073,0.11963672872027502,0.0
-0.042186324857035266,0.03323471942361825,0.11978988287328278,0.0
-0.042190616391970685,0.033233914760817856,0.11969654198843742,0.0
-0.042193566822238786,0.03315049805051065,0.11959730024305586,0.0
-0.04217184092662823,0.03322023549321121,0.1195726239171772,0.0
-0.04217854644996482,0.03326234617976501,0.11947445505552949,0.0
-0.04221743848531705,0.03319099941146367,0.1198539876763806,0.0
-0.042194907926906104,0.03321943083041082,0.11981375453636105,0.0
-0.0422252168923875,0.033199582481334505,0.11971478101191295,0.0
-0.042227094438921746,0.03318992652772981,0.11967615719749418,0.0
-0.04222655799705482,0.03320441045813685,0.1196080290803944,0.0
-0.04221582915971627,0.033210579539606516,0.11948947542780346,0.0
-0.04219678547344035,0.033194486283598695,0.11987142203705574,0.0
-0.04218417908956756,0.033245448260956795,0.11978103158247848,0.0
-0.04220349099677694,0.03316766419025233,0.11953614587022614,0.0
-0.04219678547344035,0.03322613635374741,0.11963860626680926,0.0
-0.04221287872944817,0.033206019783737634,0.11958120698704804,0.0
-0.042211001182913925,0.033181343457858975,0.11959595913838854,0.0
-0.042179619333698674,0.03319850959760065,0.11967642541842764,0.0
-0.04219732191530728,0.033168200632119255,0.11960454220825938,0.0
-0.04216191675209007,0.03318241634159283,0.11944548719471541,0.0
-0.04215547944968694,0.033188585423062494,0.1195120059862144,0.0
-0.04222173002025247,0.033178393027590874,0.11937011711241212,0.0
-0.04221958425278476,0.033214066411741544,0.11967240210442569,0.0
-0.04223192241572409,0.03313708700383747,0.11983360288543736,0.0
-0.04223916438092761,0.03318912186492942,0.11972819205858613,0.0
-0.04219839479904113,0.0332416931678883,0.11975340482633172,0.0
-0.0421860566361018,0.03318322100439322,0.11967830296496189,0.0
-0.04219812657810767,0.03325161734242646,0.1196589910577525,0.0
-0.04221717026438359,0.03324142494695484,0.11958603496385038,0.0
-0.04222682621798828,0.033214871074541935,0.11955518955650206,0.0
-0.04220107700837577,0.033245448260956795,0.11962760920853725,0.0
-0.04222146179931901,0.03325912752856344,0.11958469385918306,0.0
-0.04220966007824661,0.03328729072657713,0.1195785247777134,0.0
-0.042208050752645825,0.033216212179209254,0.11957047814970949,0.0
-0.04222789910172214,0.033232305435217074,0.1196058833129267,0.0
-0.04224426057866342,0.03321460285360847,0.11952568525382105,0.0
-0.04224506524146381,0.033228013900281655,0.11957691545211262,0.0
-0.042263572485872807,0.03323069610961629,0.11967186566255876,0.0
-0.04230246452122504,0.033194486283598695,0.11969117756976815,0.0
-0.04223192241572409,0.03326931992403506,0.11967025633695798,0.0
-0.04221717026438359,0.033239547400420594,0.11938755147308726,0.0
-0.04217854644996482,0.03327119747056931,0.11958925361505195,0.0
-0.04219839479904113,0.03328246274977478,0.11957342857997759,0.0
-0.042220388915585154,0.03321540751640886,0.11936743490307748,0.0
-0.042235677508792584,0.033203874016269924,0.11940552227562932,0.0
-0.04225203898573387,0.03320119180693529,0.1198215329434315,0.0
-0.04224211481119571,0.03322855034214858,0.11970539327924172,0.0
-0.04222870376452253,0.03322828212121512,0.11958335275451575,0.0
-0.04220027234557538,0.03321862616761043,0.11944146388071346,0.0
-0.04225740340440314,0.033204678679070315,0.11953024500968994,0.0
-0.042293345009487275,0.03321889438854389,0.11965630884841787,0.0
-0.04225793984627007,0.03324491181908987,0.11965067620881513,0.0
-0.04224828389266538,0.0331789294694578,0.1196088337431948,0.0
-0.042245869904264204,0.03317973413225819,0.11958925361505195,0.0
-0.042277251753479454,0.033172492167054674,0.1195541166727682,0.0
-0.04227135089294325,0.03319985070226797,0.11964021559241005,0.0
-0.04230756071896085,0.0332298914468159,0.11959247226625351,0.0
-0.042250966102000014,0.033216212179209254,0.11939693920575849,0.0
-0.04225364831133465,0.033208970214005734,0.11950288647447664,0.0
-0.04226035383467124,0.03315854467851456,0.11970432039550787,0.0
-0.04225203898573387,0.03311562932916037,0.11959944601052357,0.0
-0.04222602155518789,0.033155057806379534,0.11968232627896384,0.0
-0.04222387578772018,0.033148620503976406,0.11948330634633379,0.0
-0.04222092535745208,0.03318322100439322,0.11951361531181519,0.0
-0.04222870376452253,0.03310946024769071,0.11971022125604407,0.0
-0.04225820806720353,0.033079955945009704,0.1195275628003553,0.0
-0.04223835971812722,0.03307029999140501,0.11962412233640222,0.0
-0.042238627939060684,0.033088002573013614,0.11960427398732591,0.0
-0.042211001182913925,0.03314030565503903,0.11962304945266837,0.0
-0.0422075143107789,0.03312287129436389,0.11958120698704804,0.0
-0.04222441222958711,0.03312045730596272,0.1195755743474453,0.0
-0.04223245885759102,0.03307244575887272,0.11957530612651183,0.0
-0.04219812657810767,0.03311080135235803,0.11964772577854703,0.0
-0.042205100322377724,0.033142719643440205,0.11961232061532982,0.0
-0.04223460462505873,0.033102754724354116,0.1194884025440696,0.0
-0.042242383032129176,0.033072713979806184,0.11954258317262927,0.0
-0.04222977664825638,0.03313708700383747,0.11956860060317524,0.0
-0.042242383032129176,0.03313440479450283,0.11948786610220268,0.0
-0.042177473566230965,0.03311482466635998,0.11939693920575849,0.0
-0.0421801557755656,0.03313225902703512,0.11962868209227111,0.0
-0.04226625469520744,0.03310516871275529,0.11965925927868597,0.0
-0.042235677508792584,0.033158008236647635,0.11954553360289737,0.0
-0.04219598081063996,0.03317946591132473,0.11941544645016748,0.0
-0.04221502449691588,0.033157203573847244,0.11939747564762541,0.0
-0.04219410326410571,0.033148620503976406,0.1194492422877839,0.0
-0.04221368339224856,0.03313440479450283,0.11979363796635127,0.0
-0.042188470624502976,0.03316256799251652,0.11987812756039233,0.0
-0.042140995519279904,0.03317732014385702,0.11970432039550787,0.0
-0.04221207406664778,0.0330416003515244,0.11949618095114005,0.0
-0.04216889049636013,0.03312769927116624,0.1196168803711987,0.0
-0.04218283798490024,0.033130381480500876,0.11962144012706759,0.0
-0.042219047810917835,0.03305849827033261,0.11956725949850792,0.0
-0.04217935111276521,0.03311536110822691,0.11964021559241005,0.0
-0.04220617320611158,0.03304562366552635,0.1195991777895901,0.0
-0.042215292717849344,0.033045891886459816,0.11964611645294625,0.0
-0.0421890070663699,0.03305367029353026,0.11970056530243937,0.0
-0.04219007995010376,0.03301209604884339,0.11968447204643155,0.0
-0.04225793984627007,0.03301263249071032,0.11967910762776228,0.0
-0.04222307112491979,0.03306439913086881,0.11976306077993641,0.0
-0.04224318769492957,0.033061180479667246,0.11963914270867619,0.0
-0.04222092535745208,0.033104095829021435,0.11946265333445709,0.0
-0.04217559601969672,0.03313413657356937,0.11938218705441798,0.0
-0.042188470624502976,0.03310516871275529,0.11976654765207144,0.0
-0.04217935111276521,0.033132527247968585,0.11982046005969764,0.0
