-0.07479448018008233,0.16453825408676315,-0.001583308170236131,0.0
-0.07477382716820563,0.16451625997021913,-0.0016074480542478627,0.0
-0.07481003699422323,0.1644492047368532,-0.0016597511362732812,0.0
-0.07483176288983379,0.16438965968962427,-0.0017029347065609342,0.0
-0.07483766375036999,0.16438027195695304,-0.0016822816946842306,0.0
-0.07485885320411362,0.16439770631762818,-0.0016774537178818843,0.0
-0.07492403089094529,0.16432850531679455,-0.0016812088109503759,0.0
-0.0747976988312839,0.16421773007127405,-0.0016281010661245664,0.0
-0.07475076016792775,0.16424964836235623,-0.00157740730969993,0.0
-0.07478241023807647,0.16425072124609008,-0.0016551913804043984,0.0
-0.07476041612153245,0.16414155532617036,-0.0016390981243965773,0.0
-0.0747252791792487,0.16412546207016254,-0.0015460254604846787,0.0
-0.07470864948137396,0.1640179054758436,-0.0016527773920032253,0.0
-0.07465151842254619,0.16402917075504908,-0.0016648473340090911,0.0
-0.0746772676321587,0.1640645759182663,-0.001660824020007136,0.0
-0.07466948922508826,0.16407718230213908,-0.0015197398090052378,0.0
-0.0746536641900139,0.16411714722122517,-0.0015916230191735054,0.0
-0.07465420063188083,0.1641724007335187,-0.0016568007060051807,0.0
-0.07486877737865177,0.16456534440104298,-0.0016176404497194826,0.0
-0.07484678326210775,0.16468497093736778,-0.0015878679261050138,0.0
-0.07482747135489837,0.16475899991500376,-0.0015674831351617734,0.0
-0.07486904559958524,0.16476060924060454,-0.0015599729490247904,0.0
-0.07486394940184943,0.16477026519420923,-0.001578211972500321,0.0
-0.07486019430878094,0.16483436999730705,-0.001583308170236131,0.0
-0.0751085668931683,0.16446207934165946,-0.0014553667849739535,0.0
-0.07508576811382389,0.1644344525855127,-0.0014550985640404898,0.0
-0.07508576811382389,0.16436605624747946,-0.0015146436112694276,0.0
-0.07514370383545205,0.1643333332935969,-0.0014636816339113276,0.0
-0.07516891660319763,0.16423865130408422,-0.0014145972030874731,0.0
-0.07515765132399216,0.16421531608287288,-0.0014151336449544005,0.0
-0.07544491594373179,0.1640570657321293,-0.0016648473340090911,0.0
-0.07544303839719754,0.16402729320851483,-0.0016390981243965773,0.0
-0.0754677147230762,0.1640911297906792,-0.0015814306237018853,0.0
-0.07561335868994698,0.16405250597626042,-0.001544952576750824,0.0
-0.07553101486337363,0.16399698424303344,-0.0014644862967117186,0.0
-0.07542721336212319,0.1639825003126264,-0.00137650983053563,0.0
-0.07554549879378067,0.16393422054460294,-0.0011200906181443474,0.0
-0.07556454248005659,0.16395192312621154,-0.0011096300017392638,0.0
-0.07556749291032469,0.1639972524639669,-0.0011423529556218333,0.0
-0.07553021020057324,0.16408630181387684,-0.0012075306424535086,0.0
-0.07558653659660061,0.16405974794146394,-0.00130006686449848,0.0
-0.0755851954919333,0.1640460686738573,-0.0013284982834456305,0.0
-0.0757099182259939,0.16406243015079858,-0.0011807085491071403,0.0
-0.07572064706333245,0.16399269270809802,-0.0011439622812226154,0.0
-0.07575122424974731,0.163911689986192,-0.001132428781083677,0.0
-0.07572413393546748,0.1639087395559239,-0.0010310412682344042,0.0
-0.07578475186643027,0.16389693783485149,-9.747148722070303E-4,0.0
-0.07582900832045178,0.1639656023938182,-9.226800111150756E-4,0.0
-0.07593066405423451,0.16419627239659695,-8.693040453558022E-4,0.0
-0.07594890307771004,0.16421558430380634,-8.835197548293775E-4,0.0
-0.07597250651985485,0.16419493129192964,-8.550883358822269E-4,0.0
-0.0759285182867668,0.1642129020944717,-9.028316620387628E-4,0.0
-0.07594032000783921,0.16426064542062824,-8.789599989604948E-4,0.0
-0.07599020910146345,0.16422309448994332,-8.599163126845732E-4,0.0
-0.07599584174106619,0.16437571220108416,-9.175838133792654E-4,0.0
-0.07599637818293312,0.16435425452640706,-9.96977209684516E-4,0.0
-0.07602910113681569,0.16434191636346773,-9.664000232696561E-4,0.0
-0.07603017402054954,0.16430838874678477,-9.511114300622261E-4,0.0
-0.07599020910146345,0.16434620789840315,-9.379686043225055E-4,0.0
-0.07600442481093703,0.1643392341541331,-9.00954115504517E-4,0.0
-0.07618118240608959,0.1641842024545911,-8.540154521483722E-4,0.0
-0.07618386461542423,0.16419251730352846,-8.939803712344612E-4,0.0
-0.07615704252207786,0.16422604492021142,-9.537936393968629E-4,0.0
-0.07616723491754948,0.16419198086166154,-9.83566163011332E-4,0.0
-0.07619834854583127,0.1642432110599531,-9.535254184633992E-4,0.0
-0.07615462853367669,0.16427110603703332,-0.0010060967214222814,0.0
-0.07627720550026959,0.16409166623254612,-9.49502104461444E-4,0.0
-0.07626915887226568,0.16405223775532696,-9.095371853753549E-4,0.0
-0.07628015593053769,0.16409193445347958,-7.896424281170879E-4,0.0
-0.07629919961681361,0.16415550281471047,-7.435084275613341E-4,0.0
-0.07633111790789579,0.16404580045292383,-7.089079271445188E-4,0.0
-0.07632092551242417,0.16405894327866355,-6.912053455359156E-4,0.0
-0.07630134538428132,0.16398115920795908,-7.968843933206074E-4,0.0
-0.076348015826704,0.16391866373046204,-8.258522541346853E-4,0.0
-0.07630054072148093,0.1640090541850393,-8.135140911953558E-4,0.0
-0.07631636575655529,0.1640431182435892,-7.83473346647423E-4,0.0
-0.07635498957097407,0.16399698424303344,-7.319749274223956E-4,0.0
-0.07638073878058659,0.16399564313836612,-6.271005424380949E-4,0.0
-0.07652262765438887,0.16412465740736215,-3.524423065712817E-4,0.0
-0.0765231640962558,0.1641404824424365,-3.025532129470364E-4,0.0
-0.07652396875905619,0.164085228930143,-4.2298441207223083E-4,0.0
-0.076510557712383,0.16408120561614103,-4.8226123836770513E-4,0.0
-0.0765113623751834,0.1641265349538964,-4.146695631348566E-4,0.0
-0.0765564234920053,0.16413082648883182,-4.235208539391582E-4,0.0
-0.07641936259500536,0.16421933939687483,-3.6478046951061126E-4,0.0
-0.07647890764223429,0.16414906551230735,-3.859699232542423E-4,0.0
-0.07651645857291921,0.16417883803592181,-3.639758067102202E-4,0.0
-0.07646737414209535,0.16423301866448148,-3.827512720526781E-4,0.0
-0.07645101266515407,0.16421531608287288,-4.562438078217277E-4,0.0
-0.07645503597915602,0.16426547339743058,-4.186928771368119E-4,0.0
-0.07647407966543195,0.16419359018726232,-4.967451687747441E-4,0.0
-0.07645691352569027,0.16426493695556366,-4.586577962229009E-4,0.0
-0.07648212629343586,0.16423999240875153,-4.680455288941299E-4,0.0
-0.07650143820064524,0.16419171264072807,-4.903078663716157E-4,0.0
-0.07648373561903664,0.1641640858845813,-5.042553549117273E-4,0.0
-0.07648614960743781,0.16419198086166154,-4.865527733031241E-4,0.0
-0.07647059279329692,0.16422899535047952,-3.645122485771476E-4,0.0
-0.07647568899103273,0.1642335551063484,-4.0340428392938185E-4,0.0
-0.0764877589330386,0.16419359018726232,-4.176199934029571E-4,0.0
-0.07648641782837128,0.16416247655898053,-4.4229631928161613E-4,0.0
-0.0764722021188977,0.16420270969900008,-4.699230754283757E-4,0.0
-0.07649848777037714,0.1641871528848592,-4.886985407708336E-4,0.0
-0.07658512313188591,0.16416649987298249,-2.443492703854168E-4,0.0
-0.07656795699214423,0.16414691974483964,-2.2020938637368518E-4,0.0
-0.07655535060827144,0.16421102454793746,-1.9070508369267985E-4,0.0
-0.07656339723627535,0.16423194578074762,-1.6254188567899297E-4,0.0
-0.07658485491095245,0.16418768932672612,-1.2177230379251287E-4,0.0
-0.07656178791067457,0.16421317031540517,-1.2257696659290392E-4,0.0
-0.07663313467897591,0.1640704767788025,-1.5503169954200977E-4,0.0
-0.07663447578364323,0.16407235432533673,-2.0518901409971883E-4,0.0
-0.07658512313188591,0.16406350303453243,-2.489090262542994E-4,0.0
-0.07658351380628513,0.1640718178834698,-2.1860006077290307E-4,0.0
-0.07662079651603658,0.16397686767302366,-2.3281577024647837E-4,0.0
-0.07662696559750624,0.16405009198785925,-1.614690019451382E-4,0.0
-0.07662374694630468,0.1639146404164601,-6.437302403128434E-6,0.0
-0.07666880806312658,0.163837661008556,-5.5789954160446425E-5,0.0
-0.0766642483072577,0.16389050053244836,-6.732345429938487E-5,0.0
-0.07668141444699937,0.16389264629991607,-7.858873350485962E-5,0.0
-0.07671413740088194,0.16387735770670864,-4.3988233088044295E-5,0.0
-0.07666693051659233,0.16385455892736422,-1.0058285004888178E-4,0.0
-0.07666585763285848,0.16392697857939942,-2.953112477435169E-4,0.0
-0.07670501788914418,0.16388996409058143,-3.041625385478185E-4,0.0
-0.07668865641220289,0.16387440727644054,-3.2964352722686857E-4,0.0
-0.0766124816670992,0.16394897269594344,-3.4815077163586277E-4,0.0
-0.07667390426086239,0.1639159815211274,-3.639758067102202E-4,0.0
-0.07677260956437702,0.16382398174094936,-3.86238144187706E-4,0.0
-0.07670716365661188,0.16387896703230942,-5.246401458549674E-4,0.0
-0.07673452219182518,0.16384785340402763,-5.184710643853026E-4,0.0
-0.07683564148374099,0.16381083891520964,-5.785525534811679E-4,0.0
-0.07678467950638289,0.1638961331720511,-5.4448849493128E-4,0.0
-0.07673961838956099,0.1639146404164601,-3.194511317552485E-4,0.0
-0.07686460934455507,0.16377811596132708,-2.3147466557915994E-4,0.0
-0.07655159551520295,0.1640149550455755,-4.801154708999957E-5,0.0
-0.07658968288775479,0.16394146250980646,-7.832051257139594E-5,0.0
-0.07656956631774502,0.1639205412769963,2.440810494519531E-5,0.0
-0.07651458102638496,0.1640195148014444,-6.973744270055803E-6,0.0
-0.07649446445637519,0.16403748560398645,-2.2530558410949516E-5,0.0
-0.07649982887504446,0.16406833101133478,-2.601743054597742E-5,0.0
-0.07654730398026753,0.16450258070261248,2.623200729274837E-4,0.0
-0.07639227228072552,0.16462167079707035,2.6446584039519313E-4,0.0
-0.07643867450221474,0.16449533873740896,2.561509914578189E-4,0.0
-0.07648614960743781,0.1644264059575088,1.5771390887664663E-4,0.0
-0.07648293095623625,0.16440333895723092,1.4430286220346237E-4,0.0
-0.0764477940139525,0.16448219591166924,1.4993550180619978E-4,0.0
-0.07649205046797401,0.1642904179442427,8.019805910564173E-5,0.0
-0.07651216703798379,0.16425957253689438,7.72476288375412E-5,0.0
-0.07647166567703077,0.16421907117594137,6.437302403128434E-5,0.0
-0.07651109415424993,0.16420726945486896,9.11951173776528E-6,0.0
-0.07658324558535166,0.16429014972330924,-1.475215134050266E-5,0.0
-0.07652396875905619,0.16420512368740126,-3.86238144187706E-5,0.0
-0.0762077362785025,0.1645733910290469,-3.417134692327344E-4,0.0
-0.07619191124342814,0.16463642294841085,-3.65853353244466E-4,0.0
-0.07619271590622853,0.1645910936106555,-3.9991741179435395E-4,0.0
-0.07614363147540468,0.16455300623810365,-4.390776680800519E-4,0.0
-0.07624045923238507,0.16457795078491577,-4.4068699368083404E-4,0.0
-0.07635284380350635,0.16454576427290013,-4.025996211289908E-4,0.0
-0.07622222020890954,0.16451223665621717,-4.6965485449491196E-4,0.0
-0.07616616203381563,0.16450231248167901,-4.498065054185993E-4,0.0
-0.07629088476787624,0.16445269160898823,-4.911125291720067E-4,0.0
-0.07632897214042808,0.16446020179512522,-5.182028434518389E-4,0.0
-0.07632897214042808,0.16441272668990214,-4.774332615653588E-4,0.0
-0.07639897780406212,0.16437732152668494,-5.63263960273738E-4,0.0
-0.07655159551520295,0.16434781722400393,-7.287562762208315E-4,0.0
-0.07654649931746714,0.16435452274734053,-7.185638807492114E-4,0.0
-0.07659531552735753,0.16438590459655578,-6.751120895280945E-4,0.0
-0.07662723381843971,0.16431241206078673,-6.676019033911114E-4,0.0
-0.07662106473697004,0.16427673867663606,-5.809665418823411E-4,0.0
-0.07668034156326552,0.16426815560676522,-5.401969599958611E-4,0.0
-0.07702285969529864,0.16429095438610963,-2.226233747748583E-5,0.0
-0.07708750094026338,0.16421773007127405,-7.081032643441277E-5,0.0
-0.07701213085796009,0.1642238991527437,3.7550930684915863E-6,0.0
-0.07705504620731428,0.16425689032755975,8.046628003910542E-7,0.0
-0.07710118020787003,0.16419949104779852,-1.984834907631267E-5,0.0
-0.07708991492866456,0.16427083781609986,-5.4985291360055375E-5,0.0
-0.0773044916754355,0.16428210309530533,-2.9826167801161747E-4,0.0
-0.07732112137331025,0.16431616715385522,-3.5324696937167276E-4,0.0
-0.0773170980593083,0.16439663343389432,-3.7497286498223124E-4,0.0
-0.07734338371078774,0.16434674434027008,-4.162788887356387E-4,0.0
-0.07736886469946679,0.16434835366587086,-4.4041877274737036E-4,0.0
-0.07731522051277405,0.16433386973546382,-4.0823226073172816E-4,0.0
-0.07743726103750002,0.16436551980561254,6.276369843050223E-5,0.0
-0.07748688191019082,0.1643598871660098,1.263320596613955E-4,0.0
-0.07752952903861154,0.16444384031818393,1.9526483956156248E-4,0.0
-0.0774951967591282,0.16446717553939527,2.140403049040204E-4,0.0
-0.0774914416660597,0.16442908816684343,1.826584556887693E-4,0.0
-0.07756654352742953,0.16444008522511544,1.4108421100189817E-4,0.0
-0.07754106253875048,0.16418903043139343,-4.299581563422866E-4,0.0
-0.07739219992067813,0.1641842024545911,-4.6187644742446516E-4,0.0
-0.0774914416660597,0.16414906551230735,-5.007684827766994E-4,0.0
-0.07745550006097557,0.16419063975699422,-4.927218547727889E-4,0.0
-0.07745657294470942,0.16425045302515662,-5.635321812072016E-4,0.0
-0.07746837466578183,0.16425635388569282,-6.220043447022848E-4,0.0
-0.07751853198033953,0.16421129276887092,-6.346107285750781E-4,0.0
-0.07743726103750002,0.1642904179442427,-6.67065461524184E-4,0.0
-0.07754347652715166,0.16420646479206857,-7.005930782071445E-4,0.0
-0.07754642695741976,0.16418822576859304,-6.123483910975922E-4,0.0
-0.07757029862049802,0.16418312957085723,-6.026924374928996E-4,0.0
-0.07755742401569177,0.1642166571875402,-6.442666821797707E-4,0.0
-0.07767436834268193,0.1641989546059316,-7.33316032089714E-4,0.0
-0.0775512549342221,0.1642571585484932,-7.730127302423394E-4,0.0
-0.07753301591074657,0.16423838308315075,-8.094907771934005E-4,0.0
-0.07765371533080523,0.16419251730352846,-8.435548357432884E-4,0.0
-0.07782001230955271,0.1642209487224756,-7.888377653166969E-4,0.0
-0.07771621080830227,0.16429363659544427,-7.931293002521158E-4,0.0
-0.07764513226093439,0.16416354944271438,-9.272397669839582E-4,0.0
-0.07763011188866042,0.16423918774595114,-8.650125104203833E-4,0.0
-0.07771406504083456,0.16411956120962634,-9.90271686347924E-4,0.0
-0.0777159425873688,0.164269764932366,-9.591580580661366E-4,0.0
-0.07763145299332774,0.1642601089787613,-9.779335234085945E-4,0.0
-0.07764379115626707,0.16419868638499813,-0.001046598082375298,0.0
-0.07781250212341573,0.16421531608287288,-0.0011933149329799336,0.0
-0.07783744667022785,0.16423972418781807,-0.001224160340328257,0.0
-0.07785166237970143,0.16420431902460086,-0.0012485684452734525,0.0
-0.07797155713695969,0.16413270403536606,-0.001287192259692223,0.0
-0.07793481086907517,0.164173741838186,-0.0012434722475376423,0.0
-0.07786963318224349,0.16423328688541494,-0.001282096061956413,0.0
-0.07785756324023763,0.16419949104779852,-0.0013504923999896527,0.0
-0.07799274659070332,0.16415416171004316,-0.0013207198763751837,0.0
-0.0779551956600184,0.16425259879262433,-0.0013134779111716643,0.0
-0.07783449623995975,0.16424186995528578,-0.0013456644231873063,0.0
-0.0778835806707836,0.16420378258273394,-0.001368194981598256,0.0
-0.07793266510160746,0.16419359018726232,-0.0013786555980033395,0.0
-0.07794473504361332,0.1642129020944717,-0.0013317169346471949,0.0
-0.07787902091491472,0.16423757842035036,-0.0013529063883908259,0.0
-0.07789404128718869,0.1642011003733993,-0.001355320376791999,0.0
-0.07794902657854874,0.164162744779914,-0.0013606847954612726,0.0
-0.07790637945012802,0.16421638896660673,-0.0014116467728193726,0.0
-0.07787875269398126,0.16419841816406466,-0.0013799967026706579,0.0
-0.07791120742693036,0.16421719362940712,-0.00142747180789373,0.0
-0.0779412481714783,0.1641871528848592,-0.001360416574527809,0.0
-0.0779589507530869,0.1641960041756635,-0.0013614894582616637,0.0
-0.07792810534573857,0.16420539190833472,-0.0013958217377450152,0.0
-0.07794661259014757,0.16420431902460086,-0.001397699284279261,0.0
-0.07797343468349394,0.16417105962885137,-0.0014089645634847358,0.0
-0.07796431517175617,0.16415630747751087,-0.0014717282619152383,0.0
-0.07792354558986969,0.16421102454793746,-0.0015479030070189245,0.0
-0.07809118367328449,0.1642070012339355,-0.0014272035869602664,0.0
-0.07809788919662108,0.16416623165204902,-0.0014862121923222772,0.0
-0.07803914881219254,0.1641707914079179,-0.0015326144138114945,0.0
-0.07792971467133936,0.16419761350126427,-0.0015124978438017182,0.0
-0.07790047858959182,0.1641855435592584,-0.0015511216582204887,0.0
-0.07799918389310645,0.16413189937256567,-0.00159269590290736,0.0
-0.07803512549819058,0.1641509430588416,-0.0015884043679719412,0.0
-0.07805336452166611,0.16420378258273394,-0.001578211972500321,0.0
-0.07803190684698902,0.16421692540847366,-0.0016069116123809354,0.0
-0.07800642585830997,0.16419090797792768,-0.0016353430313280858,0.0
-0.07799784278843913,0.16420297791993355,-0.0016500951826685884,0.0
-0.0779981110093726,0.1641729371753856,-0.0016935469738897054,0.0
-0.07800669407924343,0.16413887311683573,-0.0017579199979209897,0.0
-0.07801688647471505,0.1642381148622173,-0.0017630161956567999,0.0
-0.07804075813779332,0.16412894894229757,-0.001779109451664621,0.0
-0.07807106710327472,0.16406859923226824,-0.0018402638244943408,0.0
-0.07811049558049388,0.16416837741951673,-0.0018335583011577488,0.0
-0.07802064156778354,0.16425098946702354,-0.001807004428744844,0.0
-0.0779943559163041,0.16412626673296293,-0.0018056633240775256,0.0
-0.07802707887018667,0.16413592268656763,-0.0018834473947819943,0.0
-0.07800374364897533,0.1641783015940549,-0.0019175114533318822,0.0
-0.07799757456750567,0.16417642404752064,-0.001926899186003111,0.0
-0.07803297973072287,0.16416757275671634,-0.0019432606629443958,0.0
-0.07804397678899488,0.16410641838388662,-0.0019869806750989765,0.0
-0.07808689213834907,0.16416033079151282,-0.0020017328264394793,0.0
-0.07824138739602415,0.1640533106390608,-0.0020610096527349537,0.0
-0.07810781337115924,0.16396533417288472,-0.002097219478752551,0.0
-0.07798201775336477,0.1641699867451175,-0.0020457210595275234,0.0
-0.07796082829962114,0.1642365055366165,-0.002069860943539255,0.0
-0.07801903224218276,0.16417991091965567,-0.0021401348281067404,0.0
-0.0780659709055389,0.16412814427949718,-0.0021707120145216005,0.0
-0.07810647226649192,0.16407101322066941,-0.002209335828940371,0.0
-0.07808233238248019,0.16408791113947763,-0.002243399887490259,0.0
-0.07806570268460544,0.16413404514003338,-0.002318501748860091,0.0
-0.07805068231233148,0.164107223046687,-0.0024024549010342243,0.0
-0.07802278733525125,0.164037217383053,-0.0023700001680851185,0.0
-0.0780490729867307,0.1641404824424365,-0.0023115280045900347,0.0
-0.07803137040512209,0.1641479926285735,-0.0023957493776976323,0.0
-0.07806221581247041,0.16410936881415472,-0.002400040912633051,0.0
-0.07808233238248019,0.1640763776393387,-0.0023750963658209284,0.0
-0.07809011078955064,0.16407208610440327,-0.0023989680288991964,0.0
-0.07808420992901444,0.164059211499597,-0.002430618099047911,0.0
-0.07810995913862695,0.16411070991882204,-0.0024668279250655086,0.0
-0.07813088037143712,0.16406645346480053,-0.002391726063695677,0.0
-0.0781236384062336,0.16401924658051092,-0.002382070110090984,0.0
-0.078153947371715,0.1640659170229336,-0.0024150612849070173,0.0
-0.07817728259292633,0.16414396931457154,-0.002424180796644783,0.0
-0.07811130024329427,0.16412680317482986,-0.0024088922034373526,0.0
-0.07800964450951153,0.16405089665065964,-0.002390116738094895,0.0
-0.07804022169592639,0.16405760217399623,-0.0024566355295938887,0.0
-0.078068921335807,0.1640364127202526,-0.00252369076295981,0.0
-0.07809601165008684,0.16405894327866355,-0.002522349658292491,0.0
-0.07813463546450561,0.16399859356863422,-0.0025848451357895295,0.0
-0.07798604106736673,0.16406269837173204,-0.0026240053920752278,0.0
-0.07800132966057416,0.16407154966253634,-0.0026403668690165127,0.0
-0.07797638511376204,0.16403507161558528,-0.0025741162984509822,0.0
-0.0779560003228188,0.16406108904613126,-0.002626687601409865,0.0
-0.07793668841560941,0.1640342669527849,-0.0026974979278442776,0.0
-0.0779168400665331,0.16407235432533673,-0.002692669951041931,0.0
-0.07792059515960159,0.16405947972053048,-0.002718150939720981,0.0
-0.077913889636265,0.16396131085888277,-0.0027511421145370142,0.0
-0.07788518999638439,0.16400449442917042,-0.0027704540217463997,0.0
-0.07784656618196562,0.16401012706877316,-0.002792984580157349,0.0
-0.0778540763681026,0.16398410963822718,-0.002834022382977293,0.0
-0.07784120176329634,0.16395755576581428,-0.002876401290464555,0.0
-0.07776073548325724,0.16401817369677707,-0.002834022382977293,0.0
-0.07773686382017897,0.16402112412704517,-0.002837241034178857,0.0
-0.07769153448242361,0.16397713589395713,-0.0028836432556680744,0.0
-0.07774839732031791,0.1639825003126264,-0.002867818220593717,0.0
-0.07774169179698132,0.16400422620823696,-0.0028951767558070126,0.0
-0.07761831016758802,0.16397525834742288,-0.0029659870822414257,0.0
-0.07758183212063696,0.16401334571997472,-0.003027141455071146,0.0
-0.07760945887678372,0.1639875965103622,-0.0030587915252198606,0.0
-0.07760141224877981,0.16397981810329176,-0.003057450420552542,0.0
-0.07757619948103422,0.1639551417774131,-0.0031727854219419267,0.0
-0.07760945887678372,0.16395353245181232,-0.0031706396544742173,0.0
-0.07748205393338847,0.1640216605689121,-0.003147304433262877,0.0
-0.07740561096735131,0.16394977735874383,-0.003250301271712932,0.0
-0.07749331921259395,0.16390042470698651,-0.003257543236916451,0.0
-0.07745737760750981,0.16396506595195126,-0.0032615665509184064,0.0
-0.07742304532802645,0.16396050619608238,-0.0032961670513352217,0.0
-0.07741875379309103,0.16396426128915087,-0.003359735412566115,0.0
-0.07740882961855287,0.1639100806605912,-0.003381997750043601,0.0
-0.07742170422335913,0.16393422054460294,-0.0033318404354858917,0.0
-0.0773849579554746,0.16388540433471255,-0.0034249130993977903,0.0
-0.07736940114133371,0.16392295526539746,-0.0034345690530024828,0.0
-0.07735920874586209,0.16393180655620176,-0.0034941141002314212,0.0
-0.07734901635039047,0.16391061710245813,-0.0035507087171922583,0.0
-0.07735089389692472,0.1638784305904425,-0.00358504099667561,0.0
-0.07747534841005188,0.16394950913781037,-0.003583968112941755,0.0
-0.07744477122363701,0.163941194288873,-0.003627688125096336,0.0
-0.07739944188588165,0.16392402814913132,-0.0036840145211237095,0.0
-0.07738012997867226,0.1639559464402135,-0.0037132506028712516,0.0
-0.07735679475746092,0.16385375426456383,-0.0037483875451549942,0.0
-0.07735733119932785,0.16386931107870473,-0.003770113440765553,0.0
-0.07731012431503824,0.1639543371146127,-0.0038307313717283456,0.0
-0.07731682983837483,0.16388325856724484,-0.003851384383605049,0.0
-0.07736645071106561,0.16382505462468322,-0.0038631861046774514,0.0
-0.07745040386323974,0.16381057069427618,-0.003921121826305607,0.0
-0.07746301024711255,0.16393341588180255,-0.0039028828028300766,0.0
-0.07733936039678578,0.16395192312621154,-0.003901809919096222,0.0
-0.077367255373866,0.1638872818812468,-0.0038814251281529817,0.0
-0.07744691699110472,0.16389935182325266,-0.003950626128986613,0.0
-0.07742063133962528,0.16392671035846595,-0.003971279140863316,0.0
-0.07744155257243544,0.16388594077657948,-0.004046112781299684,0.0
-0.07746140092151177,0.16389881538138573,-0.0040632789210413595,0.0
-0.07748017638685423,0.1638620691135012,-0.0041236286310706895,0.0
-0.07744691699110472,0.16393287943993562,-0.004172713061894544,0.0
-0.07744933097950589,0.16392885612593366,-0.004179150364297672,0.0
-0.07750190228246479,0.16386045978790043,-0.004223138597385716,0.0
-0.07753087014327886,0.16382505462468322,-0.004267395051407224,0.0
-0.07749466031726127,0.16383283303175367,-0.004303604877424821,0.0
-0.07753972143408316,0.16384758518309417,-0.0043207710171664976,0.0
-0.07755366892262328,0.16381083891520964,-0.004370123668923815,0.0
-0.07739971010681511,0.1638333694736206,-0.004412770797344541,0.0
-0.07742840974669572,0.16381888554321355,-0.004426450064951189,0.0
-0.07742921440949611,0.1638607280088339,-0.00437843851786119,0.0
-0.0775120946779364,0.16385509536923115,-0.004387021587732028,0.0
-0.07753006548047847,0.16381083891520964,-0.004380316064395436,0.0
-0.0774270686420284,0.16381432578734467,-0.004418671657880742,0.0
-0.07737503378093645,0.16378133461252864,-0.004422963192816161,0.0
-0.07747508018911842,0.16372581287930166,-0.004477948484176216,0.0
-0.07750377982899903,0.16379286811266758,-0.004417598774146887,0.0
-0.07737208335066835,0.16375773117038384,-0.004435033134822027,0.0
-0.07736698715293254,0.1637630955890531,-0.0044508581698963845,0.0
-0.07740802495575248,0.16376550957745428,-0.00446507387936996,0.0
-0.07747186153791685,0.16376846000772238,-0.004472852286440406,0.0
-0.0774766895147192,0.16375317141451495,-0.0044953828448513556,0.0
-0.07747239797978378,0.16375343963544842,-0.00454956347341102,0.0
-0.07745925515404406,0.1637689964495893,-0.004594892811166383,0.0
-0.07748285859618886,0.16371910735596507,-0.00462895686971627,0.0
-0.0775128993407368,0.16367592378567739,-0.004590064834364037,0.0
-0.07753301591074657,0.16376658246118814,-0.0046179598114442595,0.0
-0.07757298082983266,0.16377436086825858,-0.004652828532794539,0.0
-0.07748446792178965,0.16373546883290635,-0.004652560311861075,0.0
-0.0775032433871321,0.1638089613686754,-0.004573703357422752,0.0
-0.07758585543463892,0.16377677485665976,-0.004666239579467723,0.0
-0.07760007114411249,0.16379957363600417,-0.004674822649338561,0.0
-0.07753113836421233,0.1638009147406715,-0.004629225090649734,0.0
-0.07755098671328864,0.16373976036784177,-0.004645050125724092,0.0
-0.0775719079460988,0.16373976036784177,-0.004654974300262248,0.0
-0.07758129567877003,0.16380332872907266,-0.004656047183996103,0.0
-0.07761535973731992,0.16372956797237015,-0.004693061672814091,0.0
-0.07764861913306942,0.16375639006571652,-0.0046699946725362144,0.0
-0.07763440342359584,0.1637853579265306,-0.004680187068007834,0.0
-0.07764781447026903,0.16377409264732512,-0.004760921568980404,0.0
-0.07770038577322791,0.1637558536238496,-0.004782111022724036,0.0
-0.07772667142470735,0.16371562048383004,-0.004817247965007778,0.0
-0.07768536540095394,0.16373332306543864,-0.004824489930211297,0.0
-0.07767329545894808,0.16374163791437601,-0.004808396674203476,0.0
-0.07776341769259187,0.1636528567853995,-0.004906297314917721,0.0
-0.07766068907507528,0.16373841926317445,-0.0048577493259607946,0.0
-0.07766095729600875,0.16371427937916272,-0.004872233256367833,0.0
-0.07766015263320836,0.16371454760009618,-0.004911661733586995,0.0
-0.07763601274919663,0.16379528210106875,-0.004886180744907945,0.0
-0.07767919631948428,0.16370676919302574,-0.0049467986758707375,0.0
-0.07767570944734925,0.16372500821650127,-0.004986763594956827,0.0
-0.07767865987761735,0.1637335912863721,-0.0049408978153345365,0.0
-0.07775483462272104,0.16380064651973802,-0.004955113524808112,0.0
-0.07770440908722986,0.16373976036784177,-0.005006880164966603,0.0
-0.07766632171467802,0.16373251840263825,-0.0049988335369626925,0.0
-0.07771755191296958,0.16371347471636233,-0.005080640921669116,0.0
-0.07765103312147059,0.1637588040541177,-0.0051549381202385565,0.0
-0.07774651977378366,0.16371910735596507,-0.005112022770884367,0.0
-0.07781652543741768,0.16369255348355213,-0.005099684607945037,0.0
-0.07790450190359377,0.16368826194861671,-0.005196512364925429,0.0
-0.07784549329823176,0.16374163791437601,-0.005240232377080009,0.0
-0.07774196001791478,0.1637461976702449,-0.005234063295610344,0.0
-0.07777173254152925,0.16368665262301593,-0.005261690051757104,0.0
-0.07780633304194606,0.16363622708752476,-0.005303264296443975,0.0
-0.07780150506514372,0.16375826761225076,-0.005261958272690568,0.0
-0.07782403562355467,0.1637276904258359,-0.00523379507467688,0.0
-0.0778414699842298,0.16370757385582613,-0.005242646365481182,0.0
-0.07788814042665249,0.1636477605876637,-0.005284220610168053,0.0
-0.07781035635594802,0.16382854149681825,-0.005244792132948891,0.0
-0.07784468863543137,0.16376872822865585,-0.005284220610168053,0.0
-0.07791201208973075,0.16376148626345233,-0.0053461796457981645,0.0
-0.07795653676468572,0.1636721686926089,-0.005313993133782522,0.0
-0.0779050383454607,0.16371830269316467,-0.005300582087109338,0.0
-0.07791335319439807,0.16375263497264803,-0.005343497436463528,0.0
-0.07795734142748612,0.16376068160065194,-0.005382925913682689,0.0
-0.07795546388095187,0.16372018023969892,-0.005421817949034923,0.0
-0.07796431517175617,0.16373198196077132,-0.005398214506890119,0.0
-0.078087428580216,0.16373385950730557,-0.005442202739978163,0.0
-0.07794661259014757,0.1636633174018046,-0.005451858693582856,0.0
-0.07784951661223372,0.1636359588665913,-0.005472779926393024,0.0
-0.07790316079892645,0.16364051862246018,-0.0054896778452012355,0.0
-0.07791898583400081,0.16375478074011574,-0.0055140859501464305,0.0
-0.07796807026482466,0.16369523569288677,-0.005570412346173804,0.0
-0.07802841997485399,0.16367190047167543,-0.005558074183234475,0.0
-0.07800052499777377,0.16369872256502183,-0.005583823392846988,0.0
-0.07799998855590684,0.16372795864676937,-0.005632907823670843,0.0
-0.07798443174176595,0.16370676919302574,-0.005670726975289223,0.0
-0.07805148697513187,0.1636823610880805,-0.005636394695805871,0.0
-0.07812176085969935,0.16368718906488286,-0.005575776764843078,0.0
-0.07797450756722779,0.16367914243687895,-0.005654633719281401,0.0
-0.07805148697513187,0.16369764968128797,-0.005719543185179613,0.0
-0.07812471128996745,0.1636308626688555,-0.0056801147079604515,0.0
-0.0780659709055389,0.16370435520462456,-0.005654097277414474,0.0
-0.07808125949874634,0.16375907227505115,-0.00572812625505045,0.0
-0.07809762097568762,0.16371320649542886,-0.005750120371594473,0.0
-0.07813597656917293,0.16366868182047387,-0.005802691674553356,0.0
-0.0781413409878422,0.16370435520462456,-0.005788744186013243,0.0
-0.07815528847638231,0.16368718906488286,-0.0057758695812069865,0.0
-0.07813195325517097,0.16372527643743473,-0.005797595476817545,0.0
-0.07820222713973846,0.16374083325157562,-0.0059201724434104494,0.0
-0.07834250668793996,0.16370757385582613,-0.005965770002099276,0.0
-0.0782676730475036,0.1637542442982488,-0.005828172663232406,0.0
-0.07803780770752522,0.1637558536238496,-0.005852312547244137,0.0
-0.07812229730156628,0.16368155642528012,-0.0059225864318116226,0.0
-0.0781737957207913,0.16366009875060303,-0.0059201724434104494,0.0
-0.07815099694144689,0.1637150840419631,-0.005854190093778383,0.0
-0.07816118933691851,0.16375665828664998,-0.005880207524324361,0.0
-0.07818613388373064,0.16369925900688875,-0.0058563358612460925,0.0
-0.07823226788428639,0.16366653605300616,-0.005871892675386987,0.0
-0.07819418051173455,0.16364641948299638,-0.005914539803807712,0.0
-0.07822448947721594,0.1635887519823017,-0.0060266561539955325,0.0
-0.07825748065203197,0.16365124745979873,-0.0059327788272832424,0.0
-0.07826204040790086,0.1636920170416852,-0.005885303722060171,0.0
-0.07827330568710633,0.1636646585064719,-0.005925536862079723,0.0
-0.07828135231511024,0.16369148059981828,-0.0059612102462303935,0.0
-0.0782344136517541,0.16373090907703747,-0.005959600920629611,0.0
-0.07825989464043315,0.16370247765809032,-0.005949944967024919,0.0
-0.07830066422231963,0.16369764968128797,-0.00597113442076855,0.0
-0.07826418617536857,0.1637070374139592,-0.006010026456120784,0.0
-0.07827303746617287,0.16370086833248954,-0.006001175165316482,0.0
-0.07842592339824717,0.1636973814603545,-0.005978376385972069,0.0
-0.07849351507348001,0.16365124745979873,-0.005993664979179499,0.0
-0.07832694987379907,0.1636928217044856,-0.005994201421046426,0.0
-0.07817620970919248,0.16369094415795135,-0.006032825235465197,0.0
-0.07814670540651147,0.16365097923886526,-0.00601190400265503,0.0
-0.07820222713973846,0.16359357995910404,-0.00602504682839475,0.0
-0.07825157979149577,0.16358821554043476,-0.006104440224700001,0.0
-0.07824058273322376,0.16366090341340342,-0.0060569651194769284,0.0
-0.07824782469842728,0.16370542808835842,-0.006001175165316482,0.0
-0.07828671673377952,0.163693626367286,-0.005968452211433913,0.0
-0.0782639179544351,0.16368665262301593,-0.0060132451073223485,0.0
-0.07825131157056231,0.16367163225074197,-0.006037921433201007,0.0
-0.07822288015161516,0.16371347471636233,-0.006003320932784191,0.0
-0.07824058273322376,0.16365124745979873,-0.00600761246771961,0.0
-0.07823521831455449,0.16363917751779286,-0.006016463758523913,0.0
-0.07820973732587544,0.1636772648903447,-0.006013781549189276,0.0
-0.07823897340762298,0.16368718906488286,-0.00602209639812665,0.0
-0.07821402886081086,0.16364239616899443,-0.0060333616773321245,0.0
-0.07825184801242924,0.16360994143604532,-0.006044895177471063,0.0
-0.07827223280337248,0.1635967986103056,-0.00608325077095637,0.0
-0.07819069363959952,0.16365017457606487,-0.006121338143508213,0.0
-0.07819552161640186,0.16359438462190443,-0.006120533480707822,0.0
-0.07825157979149577,0.16366519494833884,-0.006040603642535644,0.0
-0.07820464112813963,0.1636241571455189,-0.006044895177471063,0.0
-0.07816253044158583,0.16367538734381046,-0.0060459680612049175,0.0
-0.07827732900110829,0.16368450685554822,-0.006011635781721566,0.0
-0.07827893832670907,0.16357292694722733,-0.006062329538146202,0.0
-0.07812524773183438,0.16361798806404923,-0.006080568561621733,0.0
-0.07811022735956041,0.16374297901904333,-0.006041140084402571,0.0
-0.07814643718557801,0.1636839704136813,-0.006034702781999443,0.0
-0.07819874026760343,0.16358687443576744,-0.0060526735845415095,0.0
-0.07818827965119834,0.16363113088978895,-0.006059379107878102,0.0
-0.07818211056972868,0.16366358562273806,-0.006023705723727432,0.0
-0.0782196615004136,0.16365607543660107,-0.005954772943827265,0.0
-0.07823119500055253,0.16361879272684962,-0.0059671111067665945,0.0
-0.07821644284921203,0.1636359588665913,-0.005995274304780281,0.0
-0.07817942836039404,0.16370676919302574,-0.006010026456120784,0.0
-0.07820034959320421,0.16368557973928208,-0.006046236282138381,0.0
-0.07818854787213181,0.1636359588665913,-0.005932242385416315,0.0
-0.07816601731372086,0.1635450319701471,-0.00596389245556503,0.0
-0.07824165561695762,0.16367270513447582,-0.005995810746647208,0.0
-0.07825345733803002,0.1636890666114171,-0.0060703761661501125,0.0
-0.07811317778982851,0.163608600331378,-0.006054819352009219,0.0
-0.0780461225564626,0.163701136553423,-0.005939216129686371,0.0
-0.07809198833608488,0.16373198196077132,-0.0060081489095865385,0.0
-0.07824487426815918,0.16359223885443672,-0.006056160456676537,0.0
-0.07798094486963092,0.16363408132005705,-0.006113559736437766,0.0
-0.07782108519328657,0.16369872256502183,-0.006094247829228381,0.0
-0.07793722485747634,0.16360618634297683,-0.005937606804085589,0.0
-0.07795868253215343,0.16363649530845822,-0.005967647548633522,0.0
-0.07788250778704975,0.16360886855231146,-0.006152719992723464,0.0
-0.07786158655423958,0.16364078684339364,-0.006048382049606091,0.0
-0.07784710262383254,0.163693626367286,-0.006020487072525868,0.0
-0.07780150506514372,0.16367270513447582,-0.006005466700251901,0.0
-0.0778570267983707,0.16364507837832906,-0.006042749410003353,0.0
-0.07789511417092254,0.1635407404352117,-0.0061173148295062575,0.0
-0.07779694530927483,0.16357373161002772,-0.00590488385020302,0.0
-0.07781733010021807,0.16356836719135845,-0.006010562897987712,0.0
-0.07780847880941377,0.16369228526261867,-0.005983740804641343,0.0
-0.07776314947165841,0.1636263029129866,-0.006058306224144247,0.0
-0.07776744100659383,0.16351686877213342,-0.006012440444521957,0.0
-0.07771808835483651,0.16364910169233102,-0.005956382269428047,0.0
-0.07769207092429053,0.16365714832033493,-0.005985886572109052,0.0
-0.07768000098228467,0.16358902020323515,-0.006008417130520002,0.0
-0.07775537106458796,0.16350506705106102,-0.006000102281582627,0.0
-0.07775242063431986,0.16353457135374203,-0.006000102281582627,0.0
-0.07791254853159768,0.16358687443576744,-0.006008417130520002,0.0
-0.0776893887149559,0.16354395908641325,-0.006024510386527823,0.0
-0.07750485271273289,0.16355227393535063,-0.006074131259218604,0.0
-0.07760007114411249,0.16360967321511186,-0.006084323654690225,0.0
-0.07763896317946473,0.16361047787791225,-0.006063134200946593,0.0
-0.07763681741199702,0.1635318891444074,-0.0060569651194769284,0.0
-0.07754991382955478,0.1635613934470884,-0.006067693956815476,0.0
-0.0776746365636154,0.16359545750563828,-0.006131262318046369,0.0
-0.07775161597151947,0.16355951590055415,-0.006128848329645196,0.0
-0.07771486970363495,0.16361852450591616,-0.006139040725116816,0.0
-0.07771218749430031,0.1635997490405737,-0.006154329318324246,0.0
-0.0776620301797426,0.16359223885443672,-0.006012976886388885,0.0
-0.07765747042387372,0.16360725922671068,-0.006088883410559107,0.0
-0.07769475313362517,0.16347475808557962,-0.006108999980568883,0.0
-0.07766846748214573,0.16357641381936236,-0.006085128317490616,0.0
-0.07765183778427098,0.16356005234242108,-0.006165326376596257,0.0
-0.07768831583122204,0.16350721281852873,-0.006141186492584525,0.0
-0.07774464222724942,0.16350774926039566,-0.006085664759357543,0.0
-0.07773015829684238,0.1635686354122919,-0.006130457655245978,0.0
-0.0776826831916193,0.16355227393535063,-0.006095857154829163,0.0
-0.07767356367988154,0.16358070535429778,-0.006081641445355588,0.0
-0.07769716712202634,0.1635871426567009,-0.006125361457510168,0.0
-0.07770521375003026,0.16350345772546024,-0.006184638283805642,0.0
-0.07765237422613791,0.16353430313280856,-0.006120533480707822,0.0
-0.0776687357030792,0.16356112522615493,-0.006127239004044414,0.0
-0.07768670650562126,0.16358365578456588,-0.006249011307836927,0.0
-0.07767222257521422,0.16343854825956203,-0.006198049330478826,0.0
-0.07773981425044707,0.1634822682717166,-0.006116241945772403,0.0
-0.07770682307563104,0.16358231467989856,-0.006137431399516034,0.0
-0.07779774997207523,0.1635635392145561,-0.0061760552139348045,0.0
-0.07790316079892645,0.16351096791159722,-0.0061953671211441895,0.0
-0.07782269451888735,0.16351311367906493,-0.006209046388750837,0.0
-0.07773579093644511,0.1635029212835933,-0.006232918051829106,0.0
-0.07769770356389327,0.16352250141173616,-0.006286025796654916,0.0
-0.07773927780858014,0.16360618634297683,-0.006196171783944581,0.0
-0.07780740592567992,0.1634911195625209,-0.0062170930167547486,0.0
-0.07779828641394215,0.16355200571441716,-0.006255180389306591,0.0
-0.0777255985409735,0.16358016891243085,-0.006276101622116758,0.0
-0.0778119656815488,0.16346483391104147,-0.006303728378263519,0.0
-0.07788760398478556,0.16347904962051504,-0.00627476051744944,0.0
-0.07780821058848031,0.16345598262023717,-0.006329477587876033,0.0
-0.07775563928552143,0.16356783074949152,-0.006342352192682289,0.0
-0.07787365649624545,0.16346349280637415,-0.0063605912161578205,0.0
-0.07790637945012802,0.16337497989833114,-0.006382048890834915,0.0
-0.07786078189143919,0.16342808764315694,-0.00638821797230458,0.0
-0.07791791295026695,0.1635458366329475,-0.006360054774290893,0.0
-0.07790932988039612,0.16355146927255024,-0.006339938204281116,0.0
-0.07779855463487562,0.1634653703529084,-0.006357372564956256,0.0
-0.07780230972794411,0.16350238484172638,-0.006441862158997317,0.0
-0.07779319021620634,0.1635037259463937,-0.006355763239355474,0.0
-0.07780874703034724,0.16350318950452677,-0.006390900181639216,0.0
-0.07779533598367405,0.16343264739902583,-0.006295681750259609,0.0
-0.0777521524133864,0.16343237917809236,-0.00630453304106391,0.0
-0.07775349351805372,0.16344498556196516,-0.006371320053496368,0.0
-0.07777495119273081,0.16355120105161677,-0.006378562018699887,0.0
-0.07781223390248226,0.16350399416732717,-0.006349325936952345,0.0
-0.0778326186934255,0.16352840227227236,-0.006335646669345697,0.0
-0.07781733010021807,0.16354047221427823,-0.006359518332423966,0.0
-0.07792542313640394,0.16348280471358353,-0.00637802557683296,0.0
-0.07793051933413975,0.16346295636450722,-0.006353349250954301,0.0
-0.07778085205326701,0.16343076985249158,-0.006372661158163686,0.0
-0.07774759265751752,0.16349648398119018,-0.006348789495085418,0.0
-0.07771460148270148,0.16348146360891622,-0.006361127658024748,0.0
-0.07780177328607718,0.16343828003862856,-0.0064110167516489925,0.0
-0.07782108519328657,0.16343318384089275,-0.006381244228034524,0.0
-0.07781598899555076,0.16354395908641325,-0.006333232680944524,0.0
-0.07783583734462707,0.16352974337693968,-0.00634315685548268,0.0
-0.07784039710049595,0.16348200005078314,-0.006300241506128491,0.0
-0.0778481755075664,0.16347180765531152,-0.006315798320269385,0.0
-0.07791335319439807,0.163531084481607,-0.006333500901877988,0.0
-0.07791174386879729,0.16351016324879683,-0.0063329644600110604,0.0
-0.07785327170530221,0.1634978250858575,-0.006393850611907317,0.0
-0.07789082263598712,0.16345732372490449,-0.006300509727061955,0.0
-0.07789940570585796,0.16343667071302778,-0.0062339909355629605,0.0
-0.07790477012452723,0.16352384251640348,-0.0062600083661089375,0.0
-0.07793481086907517,0.1634999708533252,-0.006273151191848658,0.0
-0.07796404695082271,0.1634527639690356,-0.006271273645314412,0.0
-0.07803244328885595,0.16343264739902583,-0.006268591435979775,0.0
-0.07803378439352326,0.1635259882838712,-0.006262422354510111,0.0
-0.078057924277535,0.163483072934517,-0.006271273645314412,0.0
-0.07810620404555846,0.16340314309634482,-0.006268859656913239,0.0
-0.07807321287074243,0.16347395342277923,-0.0062726147499817305,0.0
-0.0780962798710203,0.16339134137527242,-0.006349862378819272,0.0
-0.07807026244047433,0.16345222752716868,-0.0062967546339934635,0.0
-0.07810620404555846,0.16347878139958158,-0.006195903563011117,0.0
-0.07805846071940192,0.16349085134158745,-0.006231308726228324,0.0
-0.07814107276690874,0.16341414015461683,-0.006270737203447485,0.0
-0.0781088862548931,0.1634986297486579,-0.006150574225255755,0.0
-0.07812041975503203,0.16346054237610605,-0.006165594597529721,0.0
-0.07813436724357214,0.16340636174754639,-0.0061937577955434074,0.0
-0.0781295392667698,0.16342755120129002,-0.006192416690876089,0.0
-0.07813999988317488,0.1634801225042489,-0.006193489574609944,0.0
-0.07819605805826879,0.16346429746917454,-0.00620850994688391,0.0
-0.07833472828086951,0.1634224550035542,-0.006171763678999386,0.0
-0.0782277081284175,0.16341172616621566,-0.006155402202058101,0.0
-0.07812980748770326,0.16335271756085365,-0.00621575191208743,0.0
-0.07818371989532946,0.16343023341062465,-0.006199122214212681,0.0
-0.07823629119828834,0.1634380118176951,-0.0061768598767351955,0.0
-0.0782336089889537,0.16346429746917454,-0.006191075586208771,0.0
-0.07826713660563667,0.1635066763766618,-0.0060762770266863135,0.0
-0.07827303746617287,0.16354717773761482,-0.006151378888056146,0.0
-0.07829288581524918,0.1634232596663546,-0.006113023294570839,0.0
-0.07820169069787153,0.1634136037127499,-0.006009490014253857,0.0
-0.07816065289505159,0.1634299651896912,-0.006068230398682403,0.0
-0.07820383646533924,0.1634136037127499,-0.006073594817351677,0.0
-0.07819149830239991,0.16333662430484583,-0.006043554072803744,0.0
-0.07815662958104963,0.1633175806185699,-0.0060132451073223485,0.0
-0.0781737957207913,0.16342299144542113,-0.005997956514114918,0.0
-0.0782639179544351,0.1634173588058184,-0.00596094202529693,0.0
-0.0783363376064703,0.16337578456113153,-0.005948067420490673,0.0
-0.07835913638581471,0.1633293823396423,-0.005969793316101231,0.0
-0.07835082153687734,0.16343774359676164,-0.005946189873956427,0.0
-0.07827732900110829,0.16343318384089275,-0.005944044106488718,0.0
-0.07824755647749382,0.1633950964683409,-0.005891204582596372,0.0
-0.07831166128059164,0.16339134137527242,-0.005906493175803802,0.0
-0.0782942269199165,0.1633900002706051,-0.005875915989388942,0.0
-0.07824299672162494,0.16341709058488493,-0.005827636221365479,0.0
-0.07834626178100845,0.16331865350230376,-0.0058689422451188855,0.0
-0.07831890324579516,0.16339563291020784,-0.005823881128296987,0.0
-0.07827008703590477,0.1634439126782313,-0.005887181268594417,0.0
-0.07824836114029421,0.1633832947472685,-0.00577828356960816,0.0
-0.07828939894311415,0.1634047524219456,-0.0057565576739976015,0.0
-0.07829825023391845,0.16334976713058555,-0.005759776325199166,0.0
-0.07831461171085974,0.16336022774699063,-0.0057935721628155894,0.0
-0.07829610446645074,0.16344552200383208,-0.005738318650522071,0.0
-0.07831273416432549,0.1634098486196814,-0.005731613127185478,0.0
-0.07831434348992627,0.16338570873566968,-0.005732149569052406,0.0
-0.07827384212897326,0.16332670013030767,-0.005747169941326373,0.0
-0.07826284507070125,0.1633996562242098,-0.00575789877866492,0.0
-0.07827169636150555,0.16342299144542113,-0.005719274964246149,0.0
-0.07829959133858577,0.16340448420101214,-0.005636126474872407,0.0
-0.07830120066418655,0.1633323327699104,-0.005709350789707993,0.0
-0.0783687923394194,0.16334225694444857,-0.0057238347201150315,0.0
-0.07845033150319236,0.16346295636450722,-0.005690575324365535,0.0
-0.07822931745401829,0.16340314309634482,-0.00566402145195263,0.0
-0.07817889191852712,0.16335432688645443,-0.005680382928893915,0.0
-0.07821912505854667,0.16335700909578907,-0.005691379987165926,0.0
-0.07829476336178343,0.16342084567795342,-0.005614400579261849,0.0
-0.07829771379205153,0.16334762136311784,-0.005643904881942854,0.0
-0.07835886816488125,0.16335137645618633,-0.0056457824284770995,0.0
-0.07831890324579516,0.16337471167739767,-0.00565382905648101,0.0
-0.07821751573294589,0.1634565190621041,-0.005643904881942854,0.0
-0.0782285127912179,0.16342674653848963,-0.005624861195666932,0.0
-0.0783207807923294,0.16336961547966186,-0.0056390769051405075,0.0
-0.07833714226927069,0.1634068981894133,-0.005635053591138552,0.0
-0.078327486315666,0.16342004101515303,-0.005620837881664977,0.0
-0.07837818007209063,0.16338302652633505,-0.005642563777275535,0.0
-0.07840392928170314,0.16334306160724896,-0.005648464637811736,0.0
-0.0783725474324879,0.16328646699028812,-0.005607695055925257,0.0
-0.07834250668793996,0.16340314309634482,-0.0055669254740387765,0.0
-0.0783932004443646,0.16336076418885756,-0.005579263636978106,0.0
-0.07839051823502996,0.16338651339847007,-0.005552977985498665,0.0
-0.07835323552527851,0.16344874065503365,-0.005563170380970285,0.0
-0.07838542203729415,0.1633221403744388,-0.005602598858189447,0.0
-0.0784020517351689,0.16339751045674208,-0.0055602199507021844,0.0
-0.0784323607006503,0.16339643757300823,-0.0055492228924301735,0.0
-0.07842538695638024,0.16336773793312762,-0.005557269520434084,0.0
-0.07835645417648007,0.1633840994100689,-0.005529642764287325,0.0
-0.07833794693207108,0.1633553997701883,-0.005591601799917435,0.0
-0.0784020517351689,0.1633803443170004,-0.005558074183234475,0.0
-0.07841358523530784,0.1633441344909828,-0.005574703881109223,0.0
-0.07838032583955834,0.16336237351445834,-0.00559562511391939,0.0
-0.07835779528114739,0.1633714930261961,-0.0056382722423401165,0.0
-0.07831139305965817,0.1633596913051237,-0.005654097277414474,0.0
-0.07835189442061119,0.16339482824740745,-0.00568655201036358,0.0
-0.07846159678239784,0.16341789524768532,-0.005783916209210897,0.0
-0.07827813366390868,0.16335942308419024,-0.00562030143979805,0.0
-0.07824380138442533,0.16328271189721963,-0.005600721311655201,0.0
-0.07827008703590477,0.16338302652633505,-0.005612523032727603,0.0
-0.0782285127912179,0.16345464151556985,-0.005570144125240341,0.0
-0.07824755647749382,0.1633360878629789,-0.0055803365207119605,0.0
-0.07829020360591454,0.16338651339847007,-0.00555190510176481,0.0
-0.07837603430462292,0.163405557084746,-0.005624861195666932,0.0
-0.07830200532698695,0.16340046088701018,-0.005546004241228609,0.0
-0.07825157979149577,0.16346402924824108,-0.005559951729768721,0.0
-0.07826123574510047,0.1634527639690356,-0.005584359834713916,0.0
-0.07828805783844683,0.16336478750285952,-0.005618423893263804,0.0
-0.0782668683847032,0.16340716641034678,-0.0056382722423401165,0.0
-0.07819900848853689,0.1634978250858575,-0.005738586871455535,0.0
-0.07822046616321399,0.1633891956078047,-0.005630225614336206,0.0
-0.07823521831455449,0.1633714930261961,-0.005590260695250117,0.0
-0.07820571401187348,0.1633803443170004,-0.005613595916461458,0.0
-0.0781590435694508,0.1634417669107636,-0.0056339807074046976,0.0
-0.07816413976718661,0.16342165034075382,-0.00570693680130682,0.0
-0.07820625045374041,0.1633862451775366,-0.005611718369927212,0.0
-0.07822314837254862,0.16340797107314717,-0.005567461915905704,0.0
-0.07822878101215136,0.16340582530567946,-0.005618960335130731,0.0
-0.07827893832670907,0.16336746971219415,-0.005669117649688441,0.0
-0.07823280432615332,0.1634388164804955,-0.005626738742201178,0.0
-0.0781686995230555,0.16348414581825085,-0.005591601799917435,0.0
-0.07819123008146645,0.16348870557411974,-0.005621106102598441,0.0
-0.07811425067356237,0.16348200005078314,-0.005643904881942854,0.0
-0.07822100260508091,0.16348575514385164,-0.005716056313044585,0.0
-0.07813114859237058,0.16339321892180667,-0.005540103380692408,0.0
-0.07808662391741561,0.16344525378289862,-0.005496651589471291,0.0
-0.07816253044158583,0.16349299710905515,-0.00555405086923252,0.0
-0.07828939894311415,0.1634661750157088,-0.00559052891618358,0.0
-0.0783953462118323,0.1634291605268908,-0.005585164497514307,0.0
-0.0781118366851612,0.1634498135387675,-0.005537957613224699,0.0
-0.07806328869620427,0.1634358660502274,-0.005525887671218832,0.0
-0.07811827398756432,0.16344793599223326,-0.0054561502285182745,0.0
-0.07841492633997516,0.16341038506154834,-0.005512476624545648,0.0
-0.07847929936400644,0.16330175558349555,-0.005527228775886151,0.0
-0.07842136364237828,0.1633146301883018,-0.005487532077733526,0.0
-0.07811961509223164,0.1633849040728693,-0.005466342623989895,0.0
-0.07800454831177572,0.16350479883012756,-0.00547546213572766,0.0
-0.07803512549819058,0.16347314875997884,-0.005500406682539783,0.0
-0.07804478145179528,0.1634254054338223,-0.00552427834561805,0.0
-0.07810379005715729,0.16349085134158745,-0.005576044985776542,0.0
-0.07812256552249974,0.16348441403918432,-0.005515158833880285,0.0
-0.07807348109167589,0.1634211138988869,-0.005505502880275593,0.0
-0.07807348109167589,0.16347368520184577,-0.005580872962578888,0.0
-0.0780667755683393,0.1635096268069299,-0.005505234659342129,0.0
-0.07808018661501248,0.16348709624851895,-0.005498260915072073,0.0
-0.07809681631288723,0.16341682236395147,-0.005547613566829391,0.0
-0.07810566760369153,0.1634358660502274,-0.005599111986054419,0.0
-0.07807938195221209,0.1634661750157088,-0.005557537741367548,0.0
-0.07814992405771304,0.16337793032859924,-0.0055299109852207885,0.0
-0.0782255623609498,0.16339160959620588,-0.005503625333741347,0.0
-0.07809359766168567,0.16344927709690057,-0.005493432938269727,0.0
-0.07812632061556823,0.16343345206182622,-0.005513281287346039,0.0
-0.07812551595276784,0.16347878139958158,-0.0055299109852207885,0.0
-0.07808367348714751,0.16341118972434873,-0.005554587311099447,0.0
-0.07808072305687941,0.16334440271191628,-0.005523741903751123,0.0
-0.07814697362744494,0.16338839094500432,-0.00551623171761414,0.0
-0.0782137606398774,0.16344927709690057,-0.005486190973066208,0.0
-0.07825265267522963,0.16338812272407086,-0.0054837769846650345,0.0
-0.0781982038257365,0.16346134703890644,-0.0055374211713577716,0.0
-0.07813168503423751,0.16339992444514326,-0.005515158833880285,0.0
-0.07814241387157606,0.16343640249209432,-0.005429864577038834,0.0
-0.07816601731372086,0.1634077028522137,-0.005502820670940956,0.0
-0.07816413976718661,0.16331892172323723,-0.005500406682539783,0.0
-0.07812927104583633,0.1633516446771198,-0.005453468019183638,0.0
-0.07814911939491265,0.16333769718857968,-0.005504698217475202,0.0
-0.078183451674396,0.16342084567795342,-0.005417258193166041,0.0
-0.07822341659348209,0.16336746971219415,-0.005364955111140622,0.0
-0.07820356824440577,0.16339241425900627,-0.005422354390901851,0.0
-0.07812551595276784,0.16335030357245248,-0.005361468239005594,0.0
-0.07814858295304572,0.16335325400272058,-0.005331695715391126,0.0
-0.07811720110383047,0.16332616368844075,-0.0053335732619253715,0.0
-0.0780541691844665,0.16336156885165795,-0.0053461796457981645,0.0
-0.07804746366112991,0.16329451361829203,-0.005453468019183638,0.0
-0.07809413410355259,0.16322209396625684,-0.005389094995152353,0.0
-0.0781080815920927,0.16333072344430963,-0.005307019389512466,0.0
-0.0781413409878422,0.1633427933863155,-0.005311042703514421,0.0
-0.07807911373127863,0.16331060687429985,-0.005365223332074086,0.0
-0.07788465355451746,0.16329290429269125,-0.0053713924135437505,0.0
-0.07785166237970143,0.16326286354814332,-0.0052152878302678864,0.0
-0.07796914314855852,0.16326983729241337,-0.005274296435629897,0.0
-0.07785836790303802,0.16328834453682237,-0.005278051528698389,0.0
-0.07780981991408109,0.16331892172323723,-0.0052882439241700085,0.0
-0.07780955169314763,0.16329558650202589,-0.005287171040436154,0.0
-0.07776341769259187,0.1632741288273488,-0.00530728761044593,0.0
-0.07770467730816333,0.1633044377928302,-0.005327135959522243,0.0
-0.07771406504083456,0.16328244367628617,-0.005396336960355874,0.0
-0.07775027486685215,0.16322879948959343,-0.005367369099541795,0.0
-0.07767544122641579,0.1632754699320161,-0.005252838760952803,0.0
-0.07763279409799506,0.16325454869920594,-0.005347520750465483,0.0
-0.0776081177721164,0.16324945250147013,-0.0053595906924713485,0.0
-0.07766390772627685,0.1630686715923156,-0.005410552669829449,0.0
-0.07764218183066629,0.16331677595576952,-0.00531238380818174,0.0
-0.07756707996929646,0.16333072344430963,-0.00525337520281973,0.0
-0.07754964560862132,0.16322799482679304,-0.005208045865064367,0.0
-0.07752040952687378,0.16328995386242315,-0.005216360714001741,0.0
-0.07752389639900881,0.163213510896386,-0.005237550167745372,0.0
-0.07742224066522606,0.16339026849153857,-0.005129993573426434,0.0
-0.0773828121880069,0.16332991878150924,-0.005146355050367719,0.0
-0.07739541857187969,0.16334628025845052,-0.005140454189831518,0.0
-0.07741178004882097,0.1633191899441707,-0.005140722410764981,0.0
-0.07737235157160181,0.16333716074671276,-0.005134553329295317,0.0
-0.07754508585275244,0.1633087293277656,-0.00516030253890783,0.0
-0.07749573320099512,0.16330121914162862,-0.005175859353048724,0.0
-0.07718969311591305,0.1633449391537832,-0.005252302319085874,0.0
-0.0771014484288035,0.16335861842138985,-0.005102635038213138,0.0
-0.07715482439456277,0.16332991878150924,-0.005157083887706266,0.0
-0.07716501679003439,0.16338168542166773,-0.00517559113211526,0.0
-0.07717225875523791,0.163350035351519,-0.005150914806236601,0.0
-0.07713148917335143,0.163328041234975,-0.005140722410764981,0.0
-0.07705692375384852,0.163405557084746,-0.005131334678093753,0.0
-0.07710922683587394,0.16336103240979102,-0.005162716527309003,0.0
-0.07706926191678785,0.16332321325817264,-0.005123288050089842,0.0
-0.07706899369585439,0.16336961547966186,-0.005060256130725876,0.0
-0.07704592669557651,0.16337176124712957,-0.005096465956743473,0.0
-0.07701883638129668,0.16334225694444857,-0.005076349386733697,0.0
-0.07703305209077026,0.16335405866552097,-0.005041480665383418,0.0
-0.07696867906673897,0.16337766210766577,-0.005031020048978334,0.0
-0.07693756543845719,0.16334037939791432,-0.0050591832469920215,0.0
-0.07694507562459417,0.1633937553636736,-0.005022436979107496,0.0
-0.07691262089164506,0.16340207021261097,-0.004983813164688726,0.0
-0.07685790382121847,0.16336746971219415,-0.004972547885483251,0.0
-0.07677529177371166,0.1633596913051237,-0.004975766536684815,0.0
-0.07681981644866663,0.163387049840337,-0.004955918187608503,0.0
-0.0769220086243163,0.1633967057939417,-0.004916221489455878,0.0
-0.07669831236580758,0.16331650773483605,-0.005030215386177943,0.0
-0.07663608510924401,0.1633191899441707,-0.005067229874995932,0.0
-0.07660926301589764,0.1634329156199593,-0.004819661953408951,0.0
-0.0766309889115082,0.16340126554981058,-0.004871428593567442,0.0
-0.0766162367601677,0.16339858334047594,-0.004892886268244537,0.0
-0.07657600362014814,0.16338758628220393,-0.0049771076413521334,0.0
-0.07656098324787418,0.16338088075886734,-0.0049223905709255425,0.0
-0.07659370620175675,0.1633862451775366,-0.004902810442782693,0.0
-0.07662937958590742,0.16334842602591823,-0.004906833756784648,0.0
-0.07660845835309725,0.1633862451775366,-0.004867405279565487,0.0
-0.07656205613160803,0.1633655921656599,-0.004902005779982302,0.0
-0.07655722815480569,0.1633191899441707,-0.004917294373189733,0.0
-0.07658083159695049,0.1633293823396423,-0.004935801617598727,0.0
-0.07652852851492507,0.16334359804911588,-0.004863381965563532,0.0
-0.07645825463035759,0.16332670013030767,-0.004884303198373699,0.0
-0.07640595154833217,0.1633293823396423,-0.00491783081505666,0.0
-0.07644672113021865,0.16324811139680281,-0.004902274000915766,0.0
-0.0764426978162167,0.16333179632804348,-0.004896641361313028,0.0
-0.07640917019953374,0.1633583502004564,-0.005040139560716099,0.0
-0.07633728698936545,0.16342057745701996,-0.004842460732753365,0.0
-0.07636813239671379,0.16335432688645443,-0.004820466616209342,0.0
-0.07636893705951418,0.16330470601376365,-0.004889131175176045,0.0
-0.07626996353506607,0.163328041234975,-0.004909247745185821,0.0
-0.07618601038289194,0.16335861842138985,-0.004918903698790515,0.0
-0.0763147564309545,0.16328539410655427,-0.004913539280121241,0.0
-0.07629759029121283,0.1632526711526717,-0.004898787128780738,0.0
-0.07629812673307976,0.16337953965420002,-0.004893690931044928,0.0
-0.07627827838400345,0.16337658922393192,-0.004909515966119286,0.0
-0.07622597530197803,0.16333260099084387,-0.004859090430628113,0.0
-0.07621551468557294,0.16327654281574996,-0.004896909582246492,0.0
-0.07628578857014043,0.16327305594361494,-0.0049341922919979445,0.0
-0.07613960816140272,0.16337390701459728,-0.004913271059187777,0.0
-0.07609293771898004,0.1633937553636736,-0.004867137058632023,0.0
-0.07618842437129311,0.1632682279668126,-0.004896909582246492,0.0
-0.07620746805756903,0.16332991878150924,-0.004863113744630068,0.0
-0.07604385328815619,0.16335432688645443,-0.004902542221849229,0.0
-0.07603178334615032,0.16331382552550142,-0.0049408978153345365,0.0
-0.07606933427683524,0.16337551634019806,-0.0049097841870527495,0.0
-0.07606504274189982,0.1633840994100689,-0.004930168977995989,0.0
-0.07602051806694485,0.16338892738687125,-0.00501251280456934,0.0
-0.07600469303187049,0.16341199438714912,-0.004980594513487162,0.0
-0.07606128764883133,0.16328539410655427,-0.005033970479246435,0.0
-0.07606396985816596,0.16330309668816287,-0.00497898518788638,0.0
-0.07606262875349865,0.16335888664232331,-0.004911661733586995,0.0
-0.07603366089268457,0.16334440271191628,-0.004933924071064481,0.0
-0.07596070479878245,0.1632829801181531,-0.004942238920001855,0.0
-0.07595131706611122,0.1631936625473097,-0.004944384687469564,0.0
-0.07588157962341066,0.16326500931561103,-0.0049207812453247604,0.0
-0.07590866993769049,0.16327010551334684,-0.004942507140935319,0.0
-0.07594246577530692,0.16339911978234287,-0.0048754519075693975,0.0
-0.07599369597359848,0.16332750479310806,-0.004952163094540011,0.0
-0.07595855903131474,0.16326635042027834,-0.004825831034878616,0.0
-0.0758155972737786,0.16332079926977147,-0.004768163534183923,0.0
-0.07589204023981574,0.16334601203751706,-0.004759312243379622,0.0
-0.07591215680982552,0.1632918314089574,-0.004755288929377667,0.0
-0.07593576025197032,0.16334091583978125,-0.004761189789913868,0.0
-0.0758990139840858,0.1633419887235151,-0.0048352187675498445,0.0
-0.07590625594928932,0.16334145228164818,-0.004833073000082135,0.0
-0.07590813349582357,0.16337953965420002,-0.004746974080440293,0.0
-0.07593576025197032,0.1633655921656599,-0.004779428813389399,0.0
-0.07587514232100753,0.16339724223580862,-0.004812419988205432,0.0
-0.07581398794817781,0.1633427933863155,-0.004820734837142806,0.0
-0.0758687050186044,0.16329531828109242,-0.004828245023279789,0.0
-0.07583061764605256,0.16326286354814332,-0.00477084574351856,0.0
-0.07582713077391753,0.16337095658432918,-0.004782379243657499,0.0
-0.07591832589129519,0.1634106532824818,-0.004748583406041075,0.0
-0.07596606921745172,0.1633146301883018,-0.004718542661493142,0.0
-0.07580755064577469,0.1632880763158889,-0.004722565975495098,0.0
-0.07577616879655943,0.16333367387457773,-0.004774600836587053,0.0
-0.07578931162229915,0.16328968564148968,-0.004788816546060628,0.0
-0.07582632611111714,0.1633937553636736,-0.00467911418427398,0.0
-0.07581908414591362,0.16340019266607672,-0.004705668056686886,0.0
-0.07580540487830698,0.163405557084746,-0.004769236417917778,0.0
-0.07582498500644982,0.1633701519215288,-0.004769236417917778,0.0
-0.07584188292525804,0.1633634463981922,-0.004755825371244594,0.0
-0.07582418034364943,0.16334762136311784,-0.004753143161909957,0.0
-0.07581157395977664,0.16336076418885756,-0.004814833976606605,0.0
-0.07580138156430502,0.16340904395688102,-0.004747778743240684,0.0
-0.07582632611111714,0.16337417523553074,-0.004772723290052807,0.0
-0.07585878084406625,0.16336103240979102,-0.004705668056686886,0.0
-0.07583249519258681,0.16338141720073426,-0.00478023347618979,0.0
-0.07580728242484122,0.16339134137527242,-0.0046775048586731975,0.0
-0.0758236439017825,0.16339160959620588,-0.0046455865675910195,0.0
-0.07580164978523848,0.16334628025845052,-0.004636467055853254,0.0
-0.07579440782003496,0.16334735314218438,-0.00467911418427398,0.0
-0.07575337001721502,0.16340528886381253,-0.0046909159053463816,0.0
-0.07574585983107804,0.1634211138988869,-0.004688233696011745,0.0
-0.07577911922682753,0.1633722976889965,-0.00470379051015264,0.0
-0.07582981298325217,0.16334923068871862,-0.004707277382287668,0.0
-0.07579762647123653,0.163357545537656,-0.004703254068285711,0.0
-0.07568577834198217,0.16341011684061488,-0.004685015044810181,0.0
-0.0756568104811681,0.16338570873566968,-0.0046699946725362144,0.0
-0.07562811084128748,0.16334976713058555,-0.004676163754005879,0.0
-0.07563723035302525,0.16329800049042706,-0.004750997394442248,0.0
-0.07567317195810938,0.1633478895840513,-0.004728735056964762,0.0
-0.07570187159799,0.1633567408748556,-0.004681259951741689,0.0
-0.07570562669105849,0.16332079926977147,-0.004717737998692751,0.0
-0.07569033809785106,0.16332911411870885,-0.0047453647548395105,0.0
-0.07572788902853597,0.1634270147594231,-0.0045994525670352655,0.0
-0.0757461280520115,0.1633368925257793,-0.004639417486121355,0.0
-0.07561255402714659,0.16331945816510415,-0.004648000555992193,0.0
-0.07557580775926206,0.16332884589777538,-0.004672140440003924,0.0
-0.07560987181781195,0.16333072344430963,-0.004729003277898226,0.0
-0.07562757439942056,0.16335325400272058,-0.004718542661493142,0.0
-0.07566378422543815,0.16337497989833114,-0.0046404903698552095,0.0
-0.07566378422543815,0.16333125988617656,-0.004665434916667332,0.0
-0.07564554520196262,0.16330980221149946,-0.004719615545226997,0.0
-0.07566968508597435,0.16336210529352488,-0.004724979963896271,0.0
-0.07568846055131681,0.1633811489798008,-0.004696280324015655,0.0
-0.07567960926051251,0.16336532394472644,-0.00470379051015264,0.0
-0.07564983673689804,0.1633545951073879,-0.004716665114958897,0.0
-0.07571260043532854,0.16328834453682237,-0.004727930394164371,0.0
-0.07574666449387843,0.16334628025845052,-0.004685551486677108,0.0
-0.0757520289125477,0.1632682279668126,-0.004735172359367891,0.0
-0.07571313687719547,0.16332750479310806,-0.004721493091761243,0.0
-0.07576114842428547,0.1633891956078047,-0.0047209566498943156,0.0
-0.07576892683135591,0.16335137645618633,-0.004698426091483365,0.0
-0.07576892683135591,0.1633352832001785,-0.0046388810442544275,0.0
-0.07571125933066122,0.16335808197952292,-0.004710227812555768,0.0
-0.07563615746929139,0.16338356296820197,-0.004606426311305321,0.0
-0.0757469327148119,0.16330470601376365,-0.004610986067174204,0.0
-0.07563749857395871,0.16332670013030767,-0.004616618706776941,0.0
-0.07561014003874542,0.16340502064287907,-0.004637808160520573,0.0
-0.07564366765542838,0.16341494481741722,-0.004654437858395321,0.0
-0.0756265015156867,0.1633553997701883,-0.004637539939587109,0.0
-0.07564688630662994,0.16328405300188695,-0.004703522289219176,0.0
-0.07563213415528944,0.16333260099084387,-0.004654974300262248,0.0
-0.07557178444526011,0.16335405866552097,-0.004613936497442304,0.0
-0.07560584850381,0.16332026282790454,-0.004642904358256383,0.0
-0.07566163845797044,0.16326393643187717,-0.004634321288385544,0.0
-0.07561818666674933,0.16334332982818242,-0.004577458450491244,0.0
-0.07562328286448514,0.1633849040728693,-0.004545271938475601,0.0
-0.07568229146984715,0.1633583502004564,-0.004565656729418841,0.0
-0.07562328286448514,0.16331892172323723,-0.0045458083803425284,0.0
-0.0755127758398981,0.1632961229438928,-0.004548222368743702,0.0
-0.07551653093296659,0.16331436196736834,-0.0045466130431429195,0.0
-0.07553155130524056,0.16338839094500432,-0.004505038798456049,0.0
-0.07554657167751452,0.16334011117698086,-0.0045095985543249315,0.0
-0.07554415768911335,0.16332616368844075,-0.004571289369021579,0.0
-0.07549534147922296,0.16333340565364426,-0.004519522728863088,0.0
-0.07548005288601553,0.1633360878629789,-0.004499942600720239,0.0
-0.07548112576974939,0.16328566232748773,-0.004529446903401244,0.0
-0.07546020453693922,0.16327064195521376,-0.0045474177059433105,0.0
-0.07546422785094117,0.1632711783970807,-0.004607230974105712,0.0
-0.07549856013042452,0.16334252516538203,-0.004524618926598898,0.0
-0.07541728918758503,0.16329049030429008,-0.004538029973272082,0.0
-0.07532341186087274,0.16329665938575974,-0.004538566415139009,0.0
-0.07526735368577883,0.1633146301883018,-0.0044449573093601836,0.0
-0.07526225748804302,0.16321699776852103,-0.004465610321236887,0.0
-0.07525018754603713,0.16331489840923527,-0.004420280983481524,0.0
-0.07518796028947355,0.16333769718857968,-0.0043905084598670555,0.0
-0.07512385548637573,0.16327681103668343,-0.00442001276254806,0.0
-0.07509569228836205,0.16328700343215505,-0.004450321728029457,0.0
-0.07510722578850099,0.1633175806185699,-0.0044441526465597925,0.0
-0.07507879436955384,0.16326179066440946,-0.0043703918898572785,0.0
-0.07499296367084546,0.16323309102452885,-0.004408747483342586,0.0
-0.07493234573988267,0.16323148169892807,-0.004426718285884652,0.0
-0.074944683902822,0.16322289862905723,-0.004399091529737893,0.0
-0.07491544782107445,0.16321485200105332,-0.004393190669201692,0.0
-0.07483256755263418,0.16314967431422164,-0.004459441239767222,0.0
-0.07476068434246591,0.16319607653571086,-0.0044232314137496245,0.0
-0.07476256188900016,0.16320600071024902,-0.004425913623084261,0.0
-0.07468853291136418,0.16316657223302986,-0.00440177373907253,0.0
-0.07469041045789843,0.16313358105821382,-0.0043972139832036475,0.0
-0.07458258564264603,0.16326795974587913,-0.0043502753198475025,0.0
-0.07455629999116659,0.16324328342000047,-0.004419208099747669,0.0
-0.07454637581662843,0.16317300953543298,-0.00437843851786119,0.0
-0.07448441678099832,0.16318266548903768,-0.004171640178160689,0.0
-0.0744527667108496,0.16309629834846237,-0.004253179341933649,0.0
-0.07436720423307469,0.16324167409439969,-0.004237622527792755,0.0
-0.07432858041865592,0.16320814647771673,-0.004227161911387671,0.0
-0.07438597969841715,0.16311400093007097,-0.00419792582964013,0.0
-0.07425964763875575,0.16317113198889874,-0.004127651945072645,0.0
-0.0742164640684681,0.16314806498862086,-0.00420811822511175,0.0
-0.07436318091907274,0.16312607087207684,-0.004178613922430745,0.0
-0.07420868566139766,0.1631367997094154,-0.004108876479730187,0.0
-0.07408691335760513,0.1632400647687989,-0.004091978560921974,0.0
-0.0740745751946658,0.16325535336200633,-0.004041821246364265,0.0
-0.07404641199665211,0.16316979088423142,-0.0040356521648946,0.0
-0.07406250525265994,0.16320519604744863,-0.003992736815540411,0.0
-0.073984452961022,0.16319393076824315,-0.0040010516644777856,0.0
-0.07394958423967173,0.16319688119851125,-0.003984153745669573,0.0
-0.0739823071935543,0.16320036807064628,-0.003941238396315384,0.0
-0.07392866300686156,0.16317783751223533,-0.0038908128608242105,0.0
-0.07385114715709055,0.16309710301126276,-0.0038972501632273393,0.0
-0.07378677413305927,0.163213510896386,-0.003841191988133429,0.0
-0.0737666575630495,0.1632186070941218,-0.0038500432789377306,0.0
-0.07379240677266201,0.1631646946864956,-0.0038741831629494623,0.0
-0.0737747041910534,0.16315128363982243,-0.003850579720804658,0.0
-0.07378704235399274,0.16308986104605924,-0.00385728524414125,0.0
-0.07377202198171877,0.16313089884887919,-0.003865063651211697,0.0
-0.07377202198171877,0.16316952266329796,-0.0038511161626715853,0.0
-0.07379857585413167,0.1630450681501708,-0.0038739149420159986,0.0
-0.07371596380662486,0.16317247309356606,-0.0036979620096638218,0.0
-0.07393778251859932,0.1631625489190279,-0.0037752096385013627,0.0
-0.073858925564161,0.16300859010321975,-0.0037685041151647707,0.0
-0.07358399910736073,0.16306008852244477,-0.003696084463129576,0.0
-0.0735960690493666,0.1631343857210142,-0.0036979620096638218,0.0
-0.07362450046831374,0.1631751553029007,-0.0036829416373898548,0.0
-0.07366071029433134,0.16309924877873047,-0.0036850874048575642,0.0
-0.07363496108471883,0.1630842284064565,-0.0036598746371119782,0.0
-0.07357273382815525,0.16310729540673438,-0.003661752183646224,0.0
-0.07358882708416307,0.1630753771156522,-0.0036883060560591284,0.0
-0.07357434315375604,0.16306679404578137,-0.003684282742057173,0.0
-0.07351104301345861,0.1631123916044702,-0.0036432449392372296,0.0
-0.07346410435010246,0.1631137327091375,-0.0036840145211237095,0.0
-0.07348287981544492,0.16310729540673438,-0.00364109917176952,0.0
-0.0734874395713138,0.16311105049980287,-0.003648877578839967,0.0
-0.07348690312944688,0.16307403601098489,-0.0036807958699221453,0.0
-0.07348583024571302,0.1629949108356131,-0.0036459271485718664,0.0
-0.07345069330342928,0.16310917295326863,-0.003660947520845833,0.0
-0.07337425033739213,0.1631182924650064,-0.0036443178229710843,0.0
-0.07332543412750174,0.16307510889471874,-0.003614008857489688,0.0
-0.07332918922057023,0.16308664239485768,-0.003648072916039576,0.0
-0.0732326296845233,0.1630976394531297,-0.003639489846168738,0.0
-0.07324013987066029,0.1630917385925935,-0.003645390706704939,0.0
-0.07322726526585403,0.16307644999938606,-0.00364619536950533,0.0
-0.07313392438100867,0.16302548802202796,-0.0036542419975092405,0.0
-0.07309020436885409,0.16300027525428237,-0.0036923293700610845,0.0
-0.07311568535753314,0.16313948191875002,-0.0036185686133585705,0.0
-0.07304621613576603,0.1631019309880651,-0.003602207136417286,0.0
-0.07285497461020643,0.163050969010707,-0.0036381487415014196,0.0
-0.0727444675856194,0.16312741197674416,-0.0036523644509749947,0.0
-0.07272944721334543,0.1631330446163469,-0.003666043718581643,0.0
-0.07267017038704995,0.16305123723164047,-0.003683478079256782,0.0
-0.07261706264222414,0.16306598938298097,-0.003648877578839967,0.0
-0.07255644471126135,0.16307054913884986,-0.003629565671630582,0.0
-0.07250816494323789,0.1630917385925935,-0.003617227508691252,0.0
-0.07250923782697175,0.16310219920899857,-0.003618836834292034,0.0
-0.07244540124480739,0.16301690495215712,-0.0036099855434877327,0.0
-0.07227561739392488,0.16310729540673438,-0.0035751168221374537,0.0
-0.07217047478800712,0.16307484067378528,-0.003635198311233319,0.0
-0.07213667895039069,0.16304909146417276,-0.0036040846829515317,0.0
-0.07203260922820678,0.16308637417392421,-0.003596306275881085,0.0
-0.07197386884377824,0.16302682912669528,-0.0036534373347088494,0.0
-0.07185504697025381,0.16305740631311014,-0.003600597810816504,0.0
-0.07182259223730471,0.16304345882457003,-0.0035973791596149397,0.0
-0.07170886656151611,0.16313116706981265,-0.0035836998920082915,0.0
-0.07156027216437723,0.16315101541888896,-0.0036059622294857775,0.0
-0.07143689053498394,0.16314135946528427,-0.003731757847280246,0.0
-0.0713537420456102,0.16308851994139192,-0.0036279563460297998,0.0
-0.07128936902157891,0.16302977955696338,-0.0035973791596149397,0.0
-0.07121024384620712,0.16304453170830388,-0.0036177639505581794,0.0
-0.0710989321588197,0.16309790767406315,-0.003629297450697118,0.0
-0.07101900232064752,0.16308771527859153,-0.00361561818309047,0.0
-0.07092888008700372,0.16307135380165025,-0.0036185686133585705,0.0
-0.0708189095042836,0.1630635753945798,-0.003618032171491643,0.0
-0.07071939953796857,0.16307591355751913,-0.003619909718025889,0.0
-0.07063625104859483,0.16317005910516488,-0.003626078799495554,0.0
-0.07060486919937958,0.16311400093007097,-0.003653705555642313,0.0
-0.07052654868680819,0.16310997761606902,-0.00361561818309047,0.0
-0.07033691648684937,0.1631456510002197,-0.0035718981709358896,0.0
-0.07023338320653238,0.16315235652355628,-0.003593087624679521,0.0
-0.07016176821729758,0.16311400093007097,-0.0036032800201511407,0.0
-0.07010141850726825,0.16307779110405338,-0.0035437349729222026,0.0
-0.06999627590135048,0.16305928385964438,-0.0036145452993566153,0.0
-0.06988120912089456,0.16310595430206706,-0.00364619536950533,0.0
-0.06977553007310987,0.16313036240701226,-0.0036397580671022017,0.0
-0.069685944281333,0.16311990179060717,-0.0036185686133585705,0.0
-0.06955934400073814,0.16310541786020014,-0.003689647160726447,0.0
-0.06949577563950725,0.16312017001154064,-0.0036357347531002465,0.0
-0.0694437407784153,0.16311802424407293,-0.0035386387751863927,0.0
-0.06929782859061105,0.1630635753945798,-0.0035635833219985155,0.0
-0.06916425456574614,0.16306116140617863,-0.0035885278688106382,0.0
-0.06906474459943111,0.16312017001154064,-0.003614813520290079,0.0
-0.06900841820340374,0.1631381408140827,-0.00362286014829399,0.0
-0.06893680321416892,0.16310380853459935,-0.0035676066360004707,0.0
-0.06884051189905546,0.16315316118635667,-0.0035576824614623145,0.0
-0.06873858794433926,0.16315637983755824,-0.003643781381104157,0.0
-0.06864417417576005,0.16319554009384393,-0.0035609011126638787,0.0
-0.06858462912853111,0.16309254325539388,-0.003604621124818459,0.0
-0.06847251277834329,0.1631477967676874,-0.0035423938682548842,0.0
-0.06835369090481888,0.1631633535818283,-0.003597110938681476,0.0
-0.06829736450879151,0.16312955774421187,-0.0036099855434877327,0.0
-0.06819946386807726,0.16314672388395354,-0.0035906736362783477,0.0
-0.06815681673965654,0.16310461319739974,-0.003619909718025889,0.0
-0.0680345079939971,0.16313626326754846,-0.0035965744968145487,0.0
-0.06793419336488168,0.16316791333769717,-0.003606498671352705,0.0
-0.06803531265679749,0.16315021075608857,-0.0036665801604485702,0.0
-0.06801197743558615,0.1629646018701317,-0.0035692159616012528,0.0
-0.06778050277000698,0.16311426915100444,-0.0035799447989398,0.0
-0.06766355844301682,0.1631823972681042,-0.003565729089466225,0.0
-0.06761501045405989,0.16316308536089483,-0.003557950682395778,0.0
-0.06763217659380157,0.16310810006953477,-0.0035871867641433194,0.0
-0.06756431669763525,0.16309495724379505,-0.003564119763865443,0.0
-0.06751764625521257,0.16309924877873047,-0.0035743121593370627,0.0
-0.06746185630105213,0.1630606249643117,-0.0036078397760200233,0.0
-0.06742323248663336,0.16313358105821382,-0.0035397116589202474,0.0
-0.06739104597461772,0.16316979088423142,-0.0035552684730611414,0.0
-0.0673416933228604,0.16311802424407293,-0.0035676066360004707,0.0
-0.0673025330665747,0.1631225839999418,-0.0035869185432098557,0.0
-0.06726900544989174,0.16311024583700248,-0.0036153499621570063,0.0
-0.06728912201990152,0.16307189024351718,-0.003576457926804772,0.0
-0.06728965846176845,0.16313787259314924,-0.003599793148016113,0.0
-0.06730762926431051,0.1630968347903293,-0.0036223237064270625,0.0
-0.06730575171777627,0.16296352898639785,-0.0036636297301804698,0.0
-0.0672789296244299,0.16307510889471874,-0.003641367392702984,0.0
-0.06728295293843185,0.1631410912443508,-0.003692865811928012,0.0
-0.06715447511130275,0.16312607087207684,-0.00367167635818438,0.0
-0.06712416614582135,0.16306518472018058,-0.0036526326719084584,0.0
-0.06713355387849258,0.1630193189405583,-0.003664970834847788,0.0
-0.06714562382049845,0.16308342374365611,-0.003733367172881028,0.0
-0.06712792123888985,0.16309281147632734,-0.003639489846168738,0.0
-0.06710968221541432,0.16304345882457003,-0.003618300392425107,0.0
-0.06708178723833409,0.16304721391763852,-0.003577262589605163,0.0
-0.06707105840099555,0.16310219920899857,-0.0035893325316110293,0.0
-0.0670536240403204,0.1631477967676874,-0.0035984520433487944,0.0
-0.06706462109859242,0.1631389454768831,-0.0035984520433487944,0.0
-0.06710136736647694,0.16306598938298097,-0.0035611693335973423,0.0
-0.0670477231797842,0.16305231011537433,-0.003587991426943711,0.0
-0.06702733838884097,0.16311426915100444,-0.0035134260074408063,0.0
-0.06712497080862175,0.1630525783363078,-0.0035609011126638787,0.0
-0.06717137303011096,0.1630643800573802,-0.0035461489613233758,0.0
-0.06702680194697404,0.16306706226671483,-0.0035134260074408063,0.0
-0.06696779334161203,0.16308530129019036,-0.0035246912866462813,0.0
-0.06701419556310124,0.16307001269698293,-0.003530055705315555,0.0
-0.06706569398232627,0.16300349390548394,-0.0035008196235680133,0.0
-0.06707186306379594,0.16308637417392421,-0.0034616593672823154,0.0
-0.0670485278425846,0.16306223428991248,-0.0034766797395562815,0.0
-0.06704879606351806,0.16299759304494774,-0.003515303553975052,0.0
-0.06702626550510711,0.16302843845229606,-0.0034643415766169522,0.0
-0.06704209054018147,0.163039971952435,-0.0034863356931609745,0.0
-0.06701580488870203,0.16308905638325885,-0.003455222064879187,0.0
-0.06699139678375683,0.16309442080192812,-0.0034442250066071753,0.0
-0.06700749003976465,0.16302790201042913,-0.0034203533435289077,0.0
-0.06699005567908951,0.16296996628880098,-0.003382802412843992,0.0
-0.06694767677160225,0.1629646018701317,-0.00341472070392617,0.0
-0.06690798007344963,0.16307001269698293,-0.0035209361935777898,0.0
-0.0669221957829232,0.16301583206842327,-0.0034879450187617566,0.0
-0.06690583430598192,0.1629460946257227,-0.00332298914468159,0.0
-0.06680498323499957,0.16302387869642718,-0.0033833388547109193,0.0
-0.06674758395523835,0.16302092826615908,-0.003422767331930081,0.0
-0.06674838861803874,0.16291417633464053,-0.0034766797395562815,0.0
-0.06672478517589392,0.16301100409162092,-0.0033428374937579026,0.0
-0.06670654615241839,0.16308556951112382,-0.0033460561449594668,0.0
-0.0666880389080094,0.1630391672896346,-0.003370732470838126,0.0
-0.06675133904830684,0.1630185142777579,-0.003299117481603322,0.0
-0.06664324601212096,0.16292088185797712,-0.003311992086409579,0.0
-0.06646595197510147,0.16287930761329025,-0.0033304993308185733,0.0
-0.0663999696254694,0.16309924877873047,-0.0032631758765191885,0.0
-0.06645200448656136,0.16308261908085572,-0.0032768551441258362,0.0
-0.06629134014741661,0.1630702809179164,-0.003250837713579859,0.0
-0.06607300830757717,0.16297184383533522,-0.0032417182018420936,0.0
-0.06599066448100382,0.1629927650681454,-0.003284097109329356,0.0
-0.06587479303774751,0.1630059078938851,-0.003280878458127792,0.0
-0.06579969117637768,0.16294797217225696,-0.0032956306094682943,0.0
-0.06567872353538556,0.16299732482401427,-0.0031754676312765635,0.0
-0.06555400080132494,0.16298766887040958,-0.003275245818525054,0.0
-0.0654080886135207,0.16297077095160137,-0.0032189194224976807,0.0
-0.0653445202522898,0.16295414125372662,-0.0032258931667677364,0.0
-0.06518734278528009,0.16292275940451137,-0.003250301271712932,0.0
-0.06495345413129974,0.16302843845229606,-0.003234476236638574,0.0
-0.06488371668859919,0.16302843845229606,-0.003222942736499636,0.0
-0.06480110464109237,0.16292490517197908,-0.0032183829806307533,0.0
-0.0647300260937245,0.16292356406731176,-0.0031781498406112008,0.0
-0.06461308176673433,0.16302843845229606,-0.0031387213633920384,0.0
-0.06451893621908858,0.16301073587068746,-0.00317010321260729,0.0
-0.06433547310059942,0.1630568698712432,-0.003191560887284385,0.0
-0.06423059871561512,0.16299544727748003,-0.0031655434567384073,0.0
-0.06411177684209071,0.16293643867211802,-0.0030563775368186875,0.0
-0.06402192282938038,0.1629342929046503,-0.0031336251656562284,0.0
-0.06391892599093031,0.16305123723164047,-0.003092319141902821,0.0
-0.06380412743140786,0.16301073587068746,-0.003088295827900866,0.0
-0.06372205182576797,0.1630088583241532,-0.003119677677116117,0.0
-0.06362012787105177,0.16300617611481857,-0.0031035844211082957,0.0
-0.06348682206712032,0.16301127231255438,-0.0030754212230946093,0.0
-0.06337390105413211,0.16296299254453092,-0.00305584109495176,0.0
-0.06326795378541396,0.1629055932647697,-0.0030770305486953913,0.0
-0.0632462278898034,0.16295923745146243,-0.0030936602465701396,0.0
-0.06313679374895022,0.163117487802206,-0.0030453804785466766,0.0
-0.06294179713032212,0.16293912088145265,-0.003134698049390083,0.0
-0.06282458458239848,0.16292570983477947,-0.0031336251656562284,0.0
-0.06276128444210105,0.16297452604466986,-0.0030681792578910894,0.0
-0.06268215926672926,0.16300617611481857,-0.003070056804425335,0.0
-0.06263280661497195,0.16299598371934695,-0.0030284825597384642,0.0
-0.06261456759149642,0.16302951133602991,-0.0029882494197189116,0.0
-0.06252471357878608,0.16302307403362679,-0.0030402842808108666,0.0
-0.06247321515956106,0.16302092826615908,-0.003041625385478185,0.0
-0.06242627649620491,0.16297908580053874,-0.003002196908259023,0.0
-0.0623163059134848,0.16298203623080684,-0.0030121210827971797,0.0
-0.06223288920317759,0.16297184383533522,-0.002998173594257068,0.0
-0.06216476108607782,0.163021464708026,-0.0029909316290535485,0.0
-0.062226183679841,0.16294555818385578,-0.0030231181410691906,0.0
-0.06218085434208564,0.16297184383533522,-0.003018558385200308,0.0
-0.06200731539813464,0.16294207131172075,-0.0030225816992022632,0.0
-0.061921216478492795,0.16300537145201818,-0.003040820722677794,0.0
-0.06187803290820514,0.16299973881241545,-0.003028750780671928,0.0
-0.061852820140459557,0.16298284089360723,-0.0029764476986465097,0.0
-0.06179542086069832,0.1629839137773411,-0.002997100710523213,0.0
-0.061729438511066256,0.16294368063732154,-0.003052622443750196,0.0
-0.06167525788250659,0.16299517905654656,-0.003053427106550587,0.0
-0.06161142130034224,0.16296004211426282,-0.0030461851413470676,0.0
-0.06150761979909179,0.16300134813801623,-0.0029627684310398615,0.0
-0.06145370739146559,0.1630244151382941,-0.002998978257057459,0.0
-0.06148052948481196,0.16294368063732154,-0.002940506093562376,0.0
-0.061400599646639784,0.16297854935867181,-0.0029144886630163985,0.0
-0.061396308111704365,0.16299517905654656,-0.0029228035119537726,0.0
-0.06140381829784135,0.16302575624296142,-0.0029152933258167896,0.0
-0.06114498509704889,0.16303460753376572,-0.002892494546472376,0.0
-0.06099183094404113,0.1629941061728127,-0.002894908534873549,0.0
-0.06099987757204504,0.16289566909023154,-0.0029287043724899736,0.0
-0.06097976100203526,0.1629868642076092,-0.002927363267822655,0.0
-0.06092155705947364,0.16306974447604947,-0.0029474798378324317,0.0
-0.06089097987305878,0.16291551743930785,-0.002949625605300141,0.0
-0.06086737643091398,0.16293536578838416,-0.002889812337137739,0.0
-0.0608384085700999,0.16303514397563265,-0.002912342895548689,0.0
-0.06074587234805493,0.16302039182429215,-0.002926558605022264,0.0
-0.06073755749911756,0.16302629268482835,-0.0028903487790046664,0.0
-0.06069866546376532,0.1629490450559908,-0.0028986636279420405,0.0
-0.06050849682193957,0.16305123723164047,-0.002870500429928354,0.0
-0.06043741827457169,0.16306330717364634,-0.00289061699993813,0.0
-0.06042803054190046,0.16295735990492818,-0.002886593685936175,0.0
-0.06039128427401594,0.1629211500789106,-0.0028072002896309244,0.0
-0.06030384424970678,0.16304158127803578,-0.002767503591478299,0.0
-0.06022793772553656,0.16300805366135282,-0.0027830604056191927,0.0
-0.06019253256231935,0.16300268924268355,-0.00277850064975031,0.0
-0.06019709231818823,0.1629498497187912,-0.002801835870961651,0.0
-0.06018287660871466,0.16290425216010238,-0.0028254393131064547,0.0
-0.060135669724425043,0.1630134180800221,-0.0027739408938814276,0.0
-0.060108042968278284,0.16299732482401427,-0.002742022602799249,0.0
-0.06008658529360119,0.1629077390322374,-0.002800762987227796,0.0
-0.06003508687437616,0.16295333659092623,-0.0027951303476250584,0.0
-0.06002704024637225,0.16295843278866204,-0.002784669731219975,0.0
-0.060017652513701024,0.16304238594083617,-0.002768576475212154,0.0
-0.06007853866559728,0.1629713073934683,-0.0027924481382904215,0.0
-0.060088462840135436,0.162932951799983,-0.0027648213821436624,0.0
-0.06004581571171471,0.1630332664290984,-0.0027586523006739973,0.0
-0.0599720549550122,0.16301288163815517,-0.0027956667894919857,0.0
-0.059990830420354656,0.1630134180800221,-0.002795398568558522,0.0
-0.059995658397157,0.1629986659286816,-0.002791107033623103,0.0
-0.059995926618090466,0.16298471844014148,-0.002848238092450868,0.0
-0.059988684652886946,0.16304104483616885,-0.002837241034178857,0.0
-0.0600377690837108,0.1630525783363078,-0.002840727906313885,0.0
-0.060067273386391805,0.1629839137773411,-0.0028645995693921526,0.0
-0.059988684652886946,0.16292436873011215,-0.00291314755834908,0.0
-0.05996186255954058,0.16297908580053874,-0.0028938356511396942,0.0
-0.05987871407016684,0.16302307403362679,-0.002903223383810924,0.0
-0.05990312217511203,0.16303889906870114,-0.0028308037317757283,0.0
-0.05992726205912376,0.16300724899855243,-0.002839923243513494,0.0
-0.05991948365205332,0.16301744139402405,-0.0028782788369988007,0.0
-0.059984929559818455,0.16301073587068746,-0.002879619941666119,0.0
-0.06001953006023527,0.16287662540395562,-0.0029219988491533816,0.0
-0.05999190330408851,0.1629868642076092,-0.0028493109761847228,0.0
-0.0600230169323703,0.16305311477817472,-0.0028844479184684654,0.0
-0.060070223816659905,0.1630775228831199,-0.0028637949065917615,0.0
-0.06006834627012566,0.1630067125566855,-0.002857625825122097,0.0
-0.060052789455984766,0.16299544727748003,-0.002851724964585896,0.0
-0.05996508121074214,0.16301958716149176,-0.0028892758952708117,0.0
-0.05994523286166583,0.16304479992923734,-0.002913415779282544,0.0
-0.05998117446674996,0.16299652016121388,-0.0029144886630163985,0.0
-0.05995596169900438,0.16296513831199863,-0.0029018822791436055,0.0
-0.05993960022206309,0.16302119648709254,-0.002939701430761985,0.0
-0.05997339605967952,0.1629528001490593,-0.0029482845006328228,0.0
-0.060018457176501415,0.16305043256884008,-0.002899736511675895,0.0
-0.060005314350761695,0.16302977955696338,-0.0029764476986465097,0.0
-0.060007460118229404,0.16299812948681466,-0.0029587451170379063,0.0
-0.06004635215358164,0.16305043256884008,-0.002938896767961594,0.0
-0.060113943828814485,0.16293187891624913,-0.002987981198785448,0.0
-0.0601278913173546,0.1629941061728127,-0.002930045477157292,0.0
-0.0601308417476227,0.16297077095160137,-0.0029179755351514264,0.0
-0.06013271929415694,0.16304050839430193,-0.0029067102559459518,0.0
-0.06017187955044265,0.1629882053122765,-0.002909124244347125,0.0
-0.06019333722511974,0.1630059078938851,-0.002902418721010533,0.0
-0.060163028259638346,0.16311024583700248,-0.0027779642078833828,0.0
-0.06014693500363052,0.16307215846445064,-0.002797812556959695,0.0
-0.06017509820164421,0.1630643800573802,-0.0027838650684195838,0.0
-0.060208894039260635,0.16303648508029997,-0.0027964714522923768,0.0
-0.06022874238833695,0.16302629268482835,-0.0028734508601964545,0.0
-0.06022525551620192,0.16299249684721193,-0.002810955382699416,0.0
-0.060214794899796836,0.16307054913884986,-0.0028122964873667344,0.0
-0.06020540716712561,0.16303568041749958,-0.0028072002896309244,0.0
-0.06025824669101795,0.16300510323108472,-0.00289061699993813,0.0
-0.060238666562875104,0.1630724266853841,-0.0029018822791436055,0.0
-0.06022230508593382,0.16306411183644673,-0.0029026869419439966,0.0
-0.06027433994702577,0.16300349390548394,-0.002893030988339303,0.0
-0.060283191237830075,0.1630348757546992,-0.0028817657091338286,0.0
-0.060233570365139294,0.163146992104887,-0.0028428736737815944,0.0
-0.06026978019115689,0.16307054913884986,-0.002839118580713103,0.0
-0.060285337005297784,0.16307698644125299,-0.002835631708578075,0.0
-0.060299284493837896,0.1630525783363078,-0.002834827045777684,0.0
-0.06028936031929974,0.16302334225456025,-0.0028790834997991918,0.0
-0.06027702215636041,0.16307001269698293,-0.002834827045777684,0.0
-0.06032744769185158,0.16307725466218645,-0.0027500692308031595,0.0
-0.06034327272692594,0.1630716220225837,-0.0027476552424019864,0.0
-0.060347296040927895,0.16302870667322952,-0.0027347806375957297,0.0
-0.060372777029606944,0.1630177096149575,-0.002734512416662266,0.0
-0.06040389065788873,0.16302790201042913,-0.002707422102382434,0.0
-0.060357488436399515,0.16300215280081662,-0.0026752355903667917,0.0
-0.06035507444799834,0.1629898146378773,-0.0026752355903667917,0.0
-0.060330666343053146,0.16301878249869137,-0.0026977661487777413,0.0
-0.06033951763385745,0.1629372433349184,-0.0026999119162454508,0.0
-0.060373581692407335,0.16296594297479902,-0.002695620381310032,0.0
-0.06036607150627035,0.1630008116961493,-0.002729416218926456,0.0
-0.060351587575863314,0.16294341241638807,-0.0026446584039519316,0.0
-0.06036902193653845,0.1630236104754937,-0.002612203671002826,0.0
-0.06041408305336035,0.16295709168399472,-0.002593696426593832,0.0
-0.06040898685562454,0.16290747081130394,-0.0026470723923531047,0.0
-0.060414351274293815,0.16283129606620025,-0.0027543607657385784,0.0
-0.060419447472029625,0.16301958716149176,-0.0026529732528893057,0.0
-0.060455925518980685,0.16300832188228628,-0.0025939646475272955,0.0
-0.06043875937923901,0.1630000070333489,-0.002571970530983273,0.0
-0.06037250880867348,0.16302495158016103,-0.00246548682039819,0.0
-0.06035426978519795,0.163010467649754,-0.0025443437748365132,0.0
-0.06039664869268521,0.16300215280081662,-0.002537906472433385,0.0
-0.06041998391389655,0.16297479426560332,-0.002530932728163329,0.0
-0.06044519668164214,0.16296889340506712,-0.0025290551816290834,0.0
-0.06050152307766951,0.16298954641694383,-0.0025832358101887474,0.0
-0.06044814711191024,0.162906934369437,-0.002604425263932379,0.0
-0.06041086440215879,0.16298257267267377,-0.002501428425482324,0.0
-0.060439832262972865,0.16291310345090668,-0.0025558772749754515,0.0
-0.06045404797244644,0.162973453160936,-0.0025698247635155633,0.0
-0.0604787242983251,0.16294233953265422,-0.0025904777753922668,0.0
-0.06049294000779867,0.16296138321893014,-0.0024957957858795865,0.0
-0.06048677092632901,0.1629705027306679,-0.002526909414161374,0.0
-0.06047604208899046,0.1630177096149575,-0.00255721837964277,0.0
-0.06047148233312158,0.16295896923052897,-0.0025647285657797534,0.0
-0.060500986635802584,0.1629565552421278,-0.0025389793561672396,0.0
-0.060483552275127445,0.1629587010095955,-0.0025282505188286924,0.0
-0.060461021716716495,0.16296862518413366,-0.0025875273451241663,0.0
-0.0604846251588613,0.16294743573039003,-0.002595305752194614,0.0
-0.06055731303182996,0.16287340675275405,-0.002547830646971541,0.0
-0.06058735377637789,0.16293563400931763,-0.0025193992280243905,0.0
-0.06055731303182996,0.1629667476375994,-0.0025566819377758425,0.0
-0.060600228381184146,0.16291551743930785,-0.002626151159542937,0.0
-0.06062114961399431,0.16288440381102606,-0.002586186240456848,0.0
-0.06063134200946593,0.1629536048118597,-0.0025899413335253394,0.0
-0.06055543548529571,0.16290237461356813,-0.0026787224625018195,0.0
-0.060549266403826046,0.16291310345090668,-0.0025987926243296417,0.0
-0.06061095721852269,0.16288306270635874,-0.0026379528806153396,0.0
-0.06062249071866163,0.16289325510183036,-0.0026628974274274624,0.0
-0.0605924499741137,0.16298337733547416,-0.0026215914036740546,0.0
-0.06062463648612934,0.16299947059148198,-0.002691060625441149,0.0
-0.06063912041653638,0.16294636284665617,-0.0027347806375957297,0.0
-0.06065145857947571,0.16294233953265422,-0.002688378416106512,0.0
-0.06066782005641699,0.16293402468371684,-0.002720028486255227,0.0
-0.06065977342841308,0.1629578963467951,-0.0026889148579734394,0.0
-0.06071663626630739,0.1629401937651865,-0.002699643695311987,0.0
-0.06078288683687292,0.1629047886019693,-0.0026701393926309817,0.0
-0.060766525359931635,0.16292678271851332,-0.0026950839394431045,0.0
-0.06074989566205689,0.1629608467770632,-0.002703130567447015,0.0
-0.06079844365101381,0.1629409984279869,-0.00268167289276992,0.0
-0.06084779630277113,0.16296326076546438,-0.0026395622062161217,0.0
-0.06088293324505487,0.16295038616065813,-0.002649218159820814,0.0
-0.060878641710119454,0.16290827547410433,-0.00271734627692059,0.0
-0.060993172048708445,0.1628642872410163,-0.0026242736130086914,0.0
-0.06107819808461643,0.16281868968232746,-0.002626151159542937,0.0
-0.060971982594964814,0.1629128352299732,-0.0026116672291358984,0.0
-0.06093818675734839,0.16293751155585187,-0.002607912136067407,0.0
-0.061002559781379674,0.16300993120788707,-0.0025679472169813176,0.0
-0.0610902680266223,0.16294233953265422,-0.0025864544613903116,0.0
-0.061111189259432465,0.16292356406731176,-0.0026054981476662338,0.0
-0.06114605798078274,0.1629211500789106,-0.002584576914856066,0.0
-0.06118897333013693,0.1629667476375994,-0.0025998655080634965,0.0
-0.061336494843541964,0.16282566342659752,-0.0026250782758090825,0.0
-0.061234302667892294,0.16291015302063858,-0.0026057663685996975,0.0
-0.06118307246960073,0.16289754663676578,-0.002628296927010647,0.0
-0.06124932304016627,0.16288815890409455,-0.002619713857139809,0.0
-0.06137941019289615,0.16289540086929807,-0.0026242736130086914,0.0
-0.06139818565823861,0.1628967419739654,-0.00255936414711048,0.0
-0.06135312454141671,0.16291229878810629,-0.002596915077795396,0.0
-0.06144458787972783,0.16289164577622958,-0.0026618245436936076,0.0
-0.06151110667122682,0.16295896923052897,-0.002612740112869753,0.0
-0.06158674497446358,0.1628996924042335,-0.0025928917637934408,0.0
-0.06161088485847531,0.16292892848598103,-0.0025829675892552837,0.0
-0.06162966032381777,0.1629359022302511,-0.00260522992673277,0.0
-0.061666674812635755,0.16290586148570316,-0.0026100579035351163,0.0
-0.061762161464948825,0.16290237461356813,-0.00254192978643534,0.0
-0.06187696002447129,0.16288064871795757,-0.0025416615655018764,0.0
-0.06186971805926777,0.16293375646278338,-0.0025915506591261215,0.0
-0.061875350698870506,0.16295923745146243,-0.0025652650076466808,0.0
-0.06195742630451039,0.1629350975674507,-0.0025325420537641113,0.0
-0.0619957818979957,0.16288869534596148,-0.002562582798312044,0.0
-0.061999805211997654,0.1629157856602413,-0.0025381746933668486,0.0
-0.06206820155003089,0.16280420575192042,-0.0026022794964646696,0.0
-0.062141962306733405,0.16280688796125506,-0.0025907459963257305,0.0
-0.0621331110159291,0.1629380479977188,-0.002539515798034167,0.0
-0.062188632749156085,0.16292570983477947,-0.002448588901589978,0.0
-0.06225166466852005,0.16296916162600059,-0.0025134983674881895,0.0
-0.06242681293807184,0.16295923745146243,-0.002454757983059643,0.0
-0.062354929727903574,0.16288842712502802,-0.002469778355333609,0.0
-0.062259979517457424,0.16292946492784796,-0.0024786296461379105,0.0
-0.06233749536722843,0.16296594297479902,-0.0024652185994647265,0.0
-0.06243271379860804,0.16287421141555444,-0.002460658843595844,0.0
-0.06251318007864715,0.16290291105543506,-0.002457171971460816,0.0
-0.06255073100933206,0.1629890099750769,-0.0024397376107856764,0.0
-0.06263066084750424,0.1629780129168049,-0.002492845355611486,0.0
-0.06261054427749446,0.16294046198611997,-0.0024319592037152296,0.0
-0.06264594944071167,0.16287877117142333,-0.002407551098770034,0.0
-0.06273338946502083,0.1629283920441141,-0.0024413469363864584,0.0
-0.06279293451224977,0.16296701585853288,-0.00241452484304009,0.0
-0.06286991392015384,0.16298766887040958,-0.0024236443547778555,0.0
-0.06286696348988574,0.16295306836999277,-0.002443224482920704,0.0
-0.06282565746613233,0.1629195407533098,-0.0024729970065351732,0.0
-0.06285140667574485,0.16294797217225696,-0.0025215449954921,0.0
-0.06292516743244737,0.1628723338690202,-0.002479166088004838,0.0
-0.06295493995606184,0.16288064871795757,-0.002441615157319922,0.0
-0.06297988450287396,0.16294663106758964,-0.002478093204270983,0.0
-0.06301475322422424,0.16294636284665617,-0.0024856033904079662,0.0
-0.06310380257413419,0.1629557505793274,-0.002413451959306235,0.0
-0.06318265952857251,0.16292517339291254,-0.002415329505840481,0.0
-0.06321484604058815,0.16289620553209846,-0.002390921400895286,0.0
-0.0632373765989991,0.1629055932647697,-0.0024263265641124923,0.0
-0.06324408212233569,0.1629578963467951,-0.00244510202945495,0.0
-0.06334412853051764,0.1628988877414331,-0.0024539533202592514,0.0
-0.0633873121008053,0.16285624061301238,-0.0024209621454432187,0.0
-0.06337899725186792,0.16289620553209846,-0.0023981633660988054,0.0
-0.06345248978763697,0.16293777977678534,-0.0024155977267739446,0.0
-0.06364051266199501,0.16291417633464053,-0.0024440291457210953,0.0
-0.06364963217373278,0.16294931327692427,-0.002420693924509755,0.0
-0.06357077521929445,0.16289915596236657,-0.0024088922034373526,0.0
-0.06359437866143926,0.16289620553209846,-0.002405941773169252,0.0
-0.06373117133750573,0.16278945360057992,-0.0024746063321359553,0.0
-0.0638186113618149,0.16287957583422372,-0.0024585130761281345,0.0
-0.06383765504809082,0.16289540086929807,-0.002411037970905062,0.0
-0.06372956201190495,0.162906934369437,-0.0024437609247876316,0.0
-0.06376711294258987,0.16298176800987338,-0.002431690982781766,0.0
-0.06386447714143718,0.16289781485769925,-0.002389312075294504,0.0
-0.06394547986334322,0.16281976256606132,-0.002369463726218191,0.0
-0.06395459937508098,0.1628618732526151,-0.0023815336682240567,0.0
-0.06399000453829819,0.16281895790326092,-0.002415329505840481,0.0
-0.06406859327180306,0.162884940252893,-0.002387702749693722,0.0
-0.06410453487688719,0.16293187891624913,-0.0023667815168835543,0.0
-0.06414262224943904,0.16290291105543506,-0.0023895802962279676,0.0
-0.06416247059851535,0.16289164577622958,-0.0024096968662377437,0.0
-0.06422282030854468,0.16278569850751143,-0.0024276676687798107,0.0
-0.06423864534361903,0.162932951799983,-0.002374559923954001,0.0
-0.064283170018574,0.16289540086929807,-0.0023632946447485264,0.0
-0.06430811456538613,0.162914444555574,-0.0023673179587504816,0.0
-0.06442184024117473,0.16286804233408478,-0.002390921400895286,0.0
-0.06445805006719232,0.16284175668260534,-0.002337545435136012,0.0
-0.06447199755573244,0.16287984405515718,-0.002356052679545007,0.0
-0.06450820738175003,0.16283800158953685,-0.002387434528760258,0.0
-0.0645556824869731,0.16279830489138422,-0.0024142566221066262,0.0
-0.06461871440633707,0.16279079470524724,-0.002319306411660482,0.0
-0.06465572889515506,0.1628642872410163,-0.0023622217610146717,0.0
-0.06468925651183802,0.16296004211426282,-0.002301067388184951,0.0
-0.06480995593189667,0.1629157856602413,-0.0023455920631399226,0.0
-0.06488076625833109,0.16288064871795757,-0.0022761228413728284,0.0
-0.06481719789710019,0.16286965165968556,-0.002300530946318024,0.0
-0.06481183347843092,0.16288842712502802,-0.0023246708303297555,0.0
-0.06488371668859919,0.1628701881015525,-0.0023024084928522696,0.0
-0.06489578663060505,0.16280849728685584,-0.0023380818770029396,0.0
-0.06494808971263047,0.16289620553209846,-0.0022932889811145044,0.0
-0.06499476015505315,0.162954945916527,-0.0023490789352749505,0.0
-0.06501407206226253,0.162877430066756,-0.0023818018891575204,0.0
-0.06508032263282806,0.1628752842992883,-0.0023898485171614313,0.0
-0.06511465491231143,0.16282244477539595,-0.00244000583171914,0.0
-0.06512645663338383,0.16287072454341942,-0.002434104971182939,0.0
-0.06515193762206288,0.1628672376712844,-0.002459854180795453,0.0
-0.06516642155246992,0.16288574491569338,-0.002429276994380593,0.0
-0.06520558180875562,0.1628323689499341,-0.002470583018134,0.0
-0.06531823460081036,0.16266982706425512,-0.002518862786157463,0.0
-0.0652935582749317,0.16289701019489886,-0.002425790122245565,0.0
-0.0653032142285364,0.16293536578838416,-0.0023399594235371853,0.0
-0.06535900418269684,0.16285784993861316,-0.002360344214480426,0.0
-0.06537053768283578,0.1628471211012746,-0.0024064782150361795,0.0
-0.06536785547350114,0.16288145338075796,-0.0024115744127719894,0.0
-0.06540486996231913,0.16288681779942724,-0.0023868980868933308,0.0
-0.06544966285820757,0.16287260208995366,-0.0023957493776976323,0.0
-0.06547192519568505,0.16277899298417484,-0.002468973692533218,0.0
-0.06557840890627013,0.1627607539606993,-0.0024829211810733294,0.0
-0.06562937088362823,0.16291498099744092,-0.0024957957858795865,0.0
-0.06547246163755198,0.16281976256606132,-0.002331644574599811,0.0
-0.06548694556795902,0.16284765754314154,-0.0024072828778365705,0.0
-0.06556768006893159,0.16287474785742137,-0.002454489762126179,0.0
-0.06562320180215857,0.16284470711287344,-0.002433300308382548,0.0
-0.06567899175631903,0.16279750022858383,-0.0024585130761281345,0.0
-0.06561864204628969,0.1628382698104703,-0.0024536850993257878,0.0
-0.06561300940668695,0.16283049140339986,-0.002479166088004838,0.0
-0.06566558070964584,0.16279159936804763,-0.0024877491578756757,0.0
-0.06568918415179065,0.16278167519350947,-0.0024818482973394747,0.0
-0.06571600624513702,0.16276316794910048,-0.002515644134955899,0.0
-0.06566692181431316,0.1628066197403216,-0.0025185945652239994,0.0
-0.065723516431274,0.16283371005460143,-0.0024708512390674638,0.0
-0.06576696822249511,0.162836928705803,-0.0024279358897132744,0.0
-0.06577716061796673,0.16278703961217875,-0.0024609270645293076,0.0
-0.06577099153649707,0.1628310278452668,-0.0024625363901300897,0.0
-0.06578762123437182,0.16286080036888126,-0.0024370554014510395,0.0
-0.06581122467651662,0.16280983839152316,-0.002427399447846347,0.0
-0.06583831499079645,0.16279964599605154,-0.002432495645582157,0.0
-0.06584636161880036,0.16283585582206914,-0.0024856033904079662,0.0
-0.06583375523492757,0.16285409484554467,-0.0024445655875880226,0.0
-0.06590456556136198,0.16279669556578344,-0.0024652185994647265,0.0
-0.06589490960775729,0.16285248551994388,-0.002468169029732827,0.0
-0.06596464705045785,0.16279159936804763,-0.0024346414130498664,0.0
-0.06593567918964377,0.1628937915436973,-0.0024139884011731626,0.0
-0.06587211082841288,0.16287957583422372,-0.002416134168640872,0.0
-0.06593648385244416,0.1628058150775212,-0.0024314227618483022,0.0
-0.06594909023631695,0.16288547669475992,-0.0023903849590283586,0.0
-0.06593058299190796,0.16289835129956617,-0.0024204257035762913,0.0
-0.06607515407504488,0.16283049140339986,-0.0024196210407759,0.0
-0.06613577200600768,0.16278543028657796,-0.0023970904823649507,0.0
-0.06597939920179835,0.16287769828768947,-0.0023380818770029396,0.0
-0.06597671699246371,0.16283210072900065,-0.002383679435691766,0.0
-0.06598288607393338,0.16289432798556422,-0.00235122470274266,0.0
-0.06602419209768678,0.1628597274851474,-0.0023598077726134986,0.0
-0.06605450106316818,0.16286589656661707,-0.0023353996676683027,0.0
-0.06609392954038734,0.16291551743930785,-0.0022948983067152865,0.0
-0.06614569618054583,0.16288896356689495,-0.002316355981392381,0.0
-0.06621194675111136,0.1628398791360711,-0.0022889974461790855,0.0
-0.06622696712338533,0.16282164011259556,-0.0023158195395254536,0.0
-0.06625405743766516,0.16278623494937836,-0.002283633027509812,0.0
-0.06623340442578846,0.16279428157738227,-0.0022930207601810407,0.0
-0.06629455879861818,0.16281868968232746,-0.002288461004312158,0.0
-0.06633103684556924,0.16277765187950752,-0.0023195746325939456,0.0
-0.06626827314713873,0.16279294047271495,-0.002324939051263219,0.0
-0.06629938677542052,0.16282700453126484,-0.0023466649468737773,0.0
-0.0663675148925203,0.16276316794910048,-0.0023064318068542248,0.0
-0.06644959049816018,0.162759412856032,-0.0022777321669736105,0.0
-0.06646809774256918,0.16277604255390674,-0.002323329725662437,0.0
-0.06641525821867683,0.16278247985630986,-0.0023380818770029396,0.0
-0.06645897823083141,0.1627763107748402,-0.0023262801559305376,0.0
-0.06651396352219147,0.1628146663683255,-0.0022734406320381916,0.0
-0.06650725799885487,0.1627468064721592,-0.0023305716908659565,0.0
-0.06652442413859655,0.1627961591239165,-0.0023345950048679117,0.0
-0.066639222698119,0.16280313286818657,-0.0023539069120772976,0.0
-0.06660167176743409,0.162770409914304,-0.0023506882608757326,0.0
-0.06654427248767286,0.16278945360057992,-0.0023472013887407047,0.0
-0.06650806266165527,0.16286589656661707,-0.002361953540081208,0.0
-0.06657511789502119,0.16278355274004372,-0.002401918459167297,0.0
-0.06660408575583526,0.16271542462294394,-0.002394408273030314,0.0
-0.06663788159345169,0.16283853803140377,-0.0023345950048679117,0.0
-0.066628225639847,0.16280125532165232,-0.0023531022492769066,0.0
-0.06666577657053191,0.16278677139124528,-0.002363831086615454,0.0
-0.06673041781549666,0.16280045065885193,-0.0023624899819481354,0.0
-0.06677279672298393,0.1627540484373627,-0.0023868980868933308,0.0
-0.06672558983869431,0.16279803667045076,-0.0023472013887407047,0.0
-0.06673175892016397,0.16271166952987545,-0.0024158659477074083,0.0
-0.06679479083952795,0.16279374513551534,-0.002326816597797465,0.0
-0.06685031257275494,0.1627489522396269,-0.002330035248999029,0.0
-0.06683126888647901,0.16280635151938813,-0.0023879709706271855,0.0
-0.06684575281688605,0.16281949434512785,-0.002341836970071431,0.0
-0.06691495381771968,0.16278972182151338,-0.0023573937842123254,0.0
-0.06697825395801711,0.16278703961217875,-0.002395212935830705,0.0
-0.06699702942335957,0.1627653137165682,-0.002400040912633051,0.0
-0.06705711091245543,0.16272293480908093,-0.0024252536803786376,0.0
-0.06708581055233605,0.1627084508786739,-0.0024617317273296986,0.0
-0.06710807288981353,0.16274707469309266,-0.002420693924509755,0.0
-0.06719953622812465,0.16280983839152316,-0.002391726063695677,0.0
-0.06727356520576062,0.16285811815954662,-0.0023807290054236657,0.0
-0.06720382776306007,0.1627784565423079,-0.002401113796366906,0.0
-0.06721160617013051,0.16274063739068953,-0.0023547115748776886,0.0
-0.06725318041481738,0.1627481475768265,-0.0023632946447485264,0.0
-0.06727839318256297,0.16273527297202026,-0.0024139884011731626,0.0
-0.06729904619443967,0.16273768696042143,-0.002356052679545007,0.0
-0.0673446437531285,0.16270120891347037,-0.002358734888879644,0.0
-0.06738621799781537,0.16271247419267584,-0.002391726063695677,0.0
-0.06737602560234375,0.16278060230977562,-0.00233083991179942,0.0
-0.06744871347531241,0.16283129606620025,-0.0023278894815313197,0.0
-0.06759194345378201,0.16274734291402612,-0.002318233527926627,0.0
-0.06754071325549045,0.16273849162322182,-0.002336204330468694,0.0
-0.06753186196468615,0.16276209506536662,-0.0023270848187309286,0.0
-0.06760723204698944,0.16277282390270517,-0.0023522975864765155,0.0
-0.06768662544329469,0.16271166952987545,-0.0023850205403590846,0.0
-0.06770888778077218,0.1628125206008578,-0.0023329856792671296,0.0
-0.06775019380452559,0.16272052082067975,-0.0023324492374002023,0.0
-0.06780464265401871,0.1627173021694782,-0.002325207272196683,0.0
-0.0678121528401557,0.162788917158713,-0.002279073271640929,0.0
-0.06787142966645118,0.16277657899577366,-0.0022345485966859574,0.0
-0.06783226941016547,0.16273554119295372,-0.0022361579222867395,0.0
-0.06786043260817917,0.16273178609988523,-0.00225949314349808,0.0
-0.06793955778355096,0.1627097919833412,-0.0022573473760303707,0.0
-0.06795162772555682,0.16275538954203003,-0.0022388401316213763,0.0
-0.06794170355101867,0.16275753530949774,-0.0022863152368444487,0.0
-0.06796369766756269,0.16273768696042143,-0.0023048224812534427,0.0
-0.06801653719145503,0.16273312720455255,-0.0022353532594863485,0.0
-0.06807715512241783,0.16264541895930992,-0.002293557202047968,0.0
-0.06812918998350978,0.16267894657599288,-0.0022543969457622702,0.0
-0.06820268251927883,0.16268377455279523,-0.002293557202047968,0.0
-0.06815949894899118,0.16268887075053104,-0.0022881927833786945,0.0
-0.0681090734135,0.16271327885547623,-0.0022707584227035548,0.0
-0.0681578896233904,0.162733395425486,-0.0023050907021869064,0.0
-0.06826759198517704,0.16277014169337053,-0.002352565807409979,0.0
-0.0682952187413238,0.1627468064721592,-0.0023474696096741684,0.0
-0.06831479886946665,0.1627320543208187,-0.002182781956527466,0.0
-0.06839794735884039,0.16268082412252713,-0.0022702219808366274,0.0
-0.0684384487197934,0.1626381769941064,-0.0023150148767250626,0.0
-0.06846929412714173,0.16270496400653886,-0.0023150148767250626,0.0
-0.06852776629063681,0.1627637043909674,-0.0022670033296350632,0.0
-0.06858570201226497,0.162703891122805,-0.0022761228413728284,0.0
-0.0686068914660086,0.1627535119954958,-0.0022707584227035548,0.0
-0.06858194691919647,0.16275592598389696,-0.0023067000277876885,0.0
-0.06862191183828256,0.1626995995878696,-0.00230026272538456,0.0
-0.0686637543039029,0.16262878926143517,-0.0023056271440538337,0.0
-0.06863746865242346,0.16268350633186177,-0.0023093822371223253,0.0
-0.06867045982723949,0.16276719126310243,-0.0022857787949775213,0.0
-0.06874153837460736,0.16279079470524724,-0.002281487260042102,0.0
-0.06879169568916507,0.1627215937044136,-0.0023289623652651744,0.0
-0.06878418550302809,0.16272883566961713,-0.0022227468756135555,0.0
-0.06883836613158775,0.16264890583144495,-0.002271294864570482,0.0
-0.06891239510922373,0.16270871909960735,-0.002265394004034281,0.0
-0.06896094309818067,0.16277282390270517,-0.0022031667474707063,0.0
-0.06907386411116888,0.16272508057654864,-0.0021964612241341143,0.0
-0.06899071562179514,0.16273071321615137,-0.002189219258930595,0.0
-0.06885875092253099,0.16266687663398702,-0.0021937790147994775,0.0
-0.06894511806310631,0.16267787369225903,-0.002170175572654673,0.0
-0.06904435980848787,0.16268887075053104,-0.0022517147364276334,0.0
-0.06891024934175602,0.16274948868149383,-0.002081930885545121,0.0
-0.06887779460880691,0.1627194479369459,-0.0020366015477897583,0.0
-0.06890086160908479,0.16269450339013378,-0.0020669105132711547,0.0
-0.06889469252761513,0.16269182118079914,-0.0020626189783357358,0.0
-0.06886411534120027,0.16268940719239797,-0.0020789804552770203,0.0
-0.06884936318985976,0.16271327885547623,-0.002082735548345512,0.0
-0.06887430773667189,0.162655879575715,-0.002104729664889534,0.0
-0.06886545644586758,0.16264622362211031,-0.00212189580463121,0.0
-0.06880644784050557,0.16273178609988523,-0.0020577910015333895,0.0
-0.06879303679383239,0.16278757605404567,-0.002069860943539255,0.0
-0.0688099347126406,0.16271301063454277,-0.0021323564210362937,0.0
-0.06882361398024725,0.16272722634401635,-0.0020604732108680263,0.0
-0.06873724683967194,0.16277094635617093,-0.0020663740714042273,0.0
-0.06867716535057608,0.16275082978616115,-0.002123773351165456,0.0
-0.0687383197234058,0.16266312154091853,-0.0021696391307877458,0.0
-0.06870935186259172,0.1627025500181377,-0.0020856859786136128,0.0
-0.06867501958310837,0.16272695812308288,-0.002051085478196797,0.0
-0.0686490021525624,0.16280232820538618,-0.00207093382727311,0.0
-0.06864927037349586,0.1627371505185545,-0.0021012427927545063,0.0
-0.06863505466402228,0.1627143517392101,-0.0020915868391498138,0.0
-0.06860286815200664,0.1626942351692003,-0.0021084847579580256,0.0
-0.06859911305893815,0.16268860252959758,-0.0021436217002417683,0.0
-0.0685891888844,0.16273393186735294,-0.0021433534793083046,0.0
-0.0685950897449362,0.1627084508786739,-0.002122700467431601,0.0
-0.0686688505016387,0.16274036916975607,-0.002182781956527466,0.0
-0.06848377805754877,0.16278167519350947,-0.0022104087126742257,0.0
-0.06836817483522592,0.1626958444948011,-0.0021393301653063494,0.0
-0.06845776062700279,0.16264461429650953,-0.0021696391307877458,0.0
-0.06843442540579145,0.1627202525997463,-0.002165079374918863,0.0
-0.0683735392538952,0.16270040425066998,-0.0022246244221478012,0.0
-0.06837434391669558,0.162722398367214,-0.0022039714102710974,0.0
-0.06838855962616916,0.16273983272788914,-0.002164274712118472,0.0
-0.06837809900976408,0.162711401308942,-0.002173662444789701,0.0
-0.06836790661429246,0.16267170461078936,-0.0022200646662789186,0.0
-0.06835288624201849,0.16267572792479132,-0.00223401215481903,0.0
-0.06834939936988346,0.16269316228546646,-0.0022452774340245047,0.0
-0.06832820991613983,0.16263039858703596,-0.002218991782545064,0.0
-0.06832230905560363,0.1626478329477111,-0.00225949314349808,0.0
-0.06830004671812615,0.16269825848320227,-0.0023099186789892526,0.0
-0.06826249578744123,0.16267680080852517,-0.0022192600034785276,0.0
-0.06826142290370737,0.16270442756467193,-0.002193510793866014,0.0
-0.06822735884515749,0.16272400769281478,-0.002212018038275008,0.0
-0.06818337061206944,0.16272964033241752,-0.0022031667474707063,0.0
-0.06822843172889134,0.16268672498306333,-0.0021969976660010417,0.0
-0.06820080497274458,0.1626604393315839,-0.0021581056306488075,0.0
-0.06820348718207922,0.16269557627386763,-0.0021822455146605388,0.0
-0.06814903833258609,0.16267170461078936,-0.0022863152368444487,0.0
-0.06814581968138453,0.1626832381109283,-0.002069860943539255,0.0
-0.06818497993767023,0.16267680080852517,-0.0020596685480676353,0.0
-0.06819651343780916,0.1626432731918422,-0.0020953419322183053,0.0
-0.06820456006581307,0.16270281823907115,-0.0020596685480676353,0.0
-0.06826732376424358,0.16272052082067975,-0.002085149536746685,0.0
-0.06822709062422402,0.16266365798278545,-0.002128064886100875,0.0
-0.06810531832043151,0.1626869932039968,-0.0021100940835588077,0.0
-0.06806937671534738,0.16270228179720422,-0.002078444013410093,0.0
-0.06807742334335129,0.16268511565746255,-0.0021135809556938356,0.0
-0.06807474113401665,0.16265480669198115,-0.00209641481595216,0.0
-0.06809190727375833,0.16266151221531774,-0.002072543152873892,0.0
-0.06808493352948827,0.1626891389714645,-0.0020953419322183053,0.0
-0.06808976150629062,0.1626706317270555,-0.0020878317460813222,0.0
-0.06817371465846475,0.16263200791263674,-0.00209641481595216,0.0
-0.06820402362394615,0.16261001379609272,-0.002066642292337691,0.0
-0.06802941179626129,0.1626735821573236,-0.0020484032688621603,0.0
-0.06797630405143548,0.16272588523934903,-0.0020722749319404283,0.0
-0.06802780247066051,0.1626478329477111,-0.002041161303658641,0.0
-0.06805677033147459,0.16254429966739412,-0.002034992222188976,0.0
-0.06804657793600297,0.16259874851688724,-0.0020374062105901493,0.0
-0.06800634479598341,0.16269691737853495,-0.002028823140719311,0.0
-0.06800178504011453,0.16268377455279523,-0.002068251617938473,0.0
-0.06805837965707537,0.16265427025011422,-0.0020186307452476912,0.0
-0.06803933597079945,0.16266151221531774,-0.0019792022680285297,0.0
-0.06799588417957833,0.1626883343086641,-0.002018094303380764,0.0
-0.06799186086557638,0.16263281257543713,-0.002051085478196797,0.0
-0.06800768590065073,0.16256683022580506,-0.0020355286640559036,0.0
-0.06794009422541789,0.16263656766850562,-0.002058059222466853,0.0
-0.06792587851594431,0.1626647308665193,-0.002007097245108753,0.0
-0.06803423977306364,0.1626617804362512,-0.001962572570153781,0.0
-0.06808895684349023,0.1626293257033021,-0.0019910039891009317,0.0
-0.06794545864408716,0.16257273108634127,-0.002036065105922831,0.0
-0.06790656660873493,0.16259660274941953,-0.002014607431245736,0.0
-0.06791649078327308,0.16266607197118663,-0.0020218493964492554,0.0
-0.06794545864408716,0.1625547602837992,-0.0020551087921987527,0.0
-0.06796691631876425,0.16252284199271702,-0.002057254559666462,0.0
-0.0679266831787447,0.16265024693611227,-0.0020521583619306522,0.0
-0.06789449666672906,0.16275538954203003,-0.0020398201989913225,0.0
-0.06791139458553727,0.16268296988999484,-0.0020108523381772445,0.0
-0.06805033302907146,0.16264541895930992,-0.0020489397107290876,0.0
-0.06794975017902258,0.16264810116864456,-0.0020891728507486406,0.0
-0.06782073591002653,0.16265105159891266,-0.002128601327967802,0.0
-0.06786767457338269,0.16265266092451344,-0.0021500590026448966,0.0
-0.06792265986474275,0.16263844521503987,-0.0021460356886429414,0.0
-0.06788591359685822,0.16267975123879327,-0.002166956921453109,0.0
-0.06788591359685822,0.16273071321615137,-0.002227306631482438,0.0
-0.06789986108539833,0.16270898732054082,-0.0021436217002417683,0.0
-0.06795565103955878,0.16267009528518858,-0.002153009432912997,0.0
-0.06796208834196191,0.162626375273034,-0.0021495225607779693,0.0
-0.06794089888821828,0.16267841013412596,-0.0021079483160910983,0.0
-0.06797630405143548,0.16266526730838624,-0.0021487178979775782,0.0
-0.06799776172611258,0.16265105159891266,-0.0021205546999638917,0.0
-0.06800232148198146,0.16267787369225903,-0.0020902457344824953,0.0
-0.0679961524005118,0.16272373947188132,-0.0021200182580969644,0.0
-0.06810236789016341,0.16261859686596356,-0.0022039714102710974,0.0
-0.06813777305338062,0.16262449772649976,-0.002110630525425735,0.0
-0.06807742334335129,0.162692894064533,-0.0020663740714042273,0.0
-0.06808144665735325,0.1626676812967874,-0.00213208820010283,0.0
-0.06813321329751174,0.16275297555362886,-0.0021358432931713215,0.0
-0.06817398287939821,0.16274734291402612,-0.002046793943261378,0.0
-0.06823057749635905,0.16262449772649976,-0.002047062164194842,0.0
-0.06823969700809682,0.16269235762266607,-0.002056718117799535,0.0
-0.06825123050823576,0.16265507491291462,-0.0020867588623474675,0.0
-0.06830541113679542,0.1626499787151788,-0.002092927943817132,0.0
-0.06834779004428268,0.16268645676212987,-0.0021009745718210426,0.0
-0.06834725360241575,0.16265990288971696,-0.0021028521183552884,0.0
-0.06837541680042944,0.16268887075053104,-0.0021224322464981375,0.0
-0.06838882784710262,0.16265829356411618,-0.0021154585022280814,0.0
-0.06850738149969357,0.16264220030810836,-0.0020553770131322164,0.0
-0.06843898516166033,0.1626588300059831,-0.0021243097930323833,0.0
-0.06839875202164078,0.16265990288971696,-0.002128064886100875,0.0
-0.06849075180181882,0.16261591465662892,-0.002006292582308362,0.0
-0.06860045416360547,0.16258560569114752,-0.0020543041293983617,0.0
-0.06859669907053698,0.16261430533102814,-0.0020253362685842833,0.0
-0.06859777195427083,0.16263495834290484,-0.0020309689081870206,0.0
-0.0686999641299205,0.16268431099466216,-0.0019877853378993675,0.0
-0.06875146254914552,0.16256790310953892,-0.0019979777333709874,0.0
-0.06862083895454871,0.16265507491291462,-0.0020025374892398704,0.0
-0.06861681564054675,0.16273661407668757,-0.00195667170961758,0.0
-0.0687117658509929,0.1626722410526563,-0.0020030739311067977,0.0
-0.0687686286888872,0.16263683588943909,-0.001995027303102887,0.0
-0.06882710085238228,0.1626234248427659,-0.002052426582864116,0.0
-0.06882871017798306,0.162663389761852,-0.002051621920063725,0.0
-0.06884829030612591,0.1626958444948011,-0.0020148756521791997,0.0
-0.0689333163420339,0.16265266092451344,-0.0020636918620695905,0.0
-0.0690234385756777,0.16265185626171305,-0.0020712020482065736,0.0
-0.06893921720257011,0.16266204865718467,-0.002071738490073501,0.0
-0.06896335708658184,0.16259499342381875,-0.0020953419322183053,0.0
-0.06910229553011603,0.1626869932039968,-0.002082467327412048,0.0
-0.06918544401948977,0.16263656766850562,-0.0019918086519013227,0.0
-0.06919080843815904,0.16266204865718467,-0.0020317735709874116,0.0
-0.06919590463589485,0.16270201357627076,-0.0020484032688621603,0.0
-0.06922755470604357,0.1626574889013158,-0.0020457210595275234,0.0
-0.0692664467413958,0.16255368740006534,-0.002068251617938473,0.0
-0.06926778784606312,0.16263790877317294,-0.0020803215599443387,0.0
-0.06927422514846625,0.16271998437881283,-0.0020738842575412104,0.0
-0.06931284896288502,0.16269638093666802,-0.0020454528385940598,0.0
-0.06936005584717463,0.16263254435450367,-0.002071738490073501,0.0
-0.06938929192892217,0.1626515880407796,-0.002094000827550987,0.0
-0.06940189831279496,0.16269048007613182,-0.0021323564210362937,0.0
-0.06944427722028222,0.16267626436665825,-0.0021178724906292545,0.0
-0.06949497097670686,0.16261618287756238,-0.0021519365491791424,0.0
-0.06947753661603172,0.1625947252028853,-0.002154082316646852,0.0
-0.06946922176709434,0.16265829356411618,-0.0021369161769051763,0.0
-0.06951857441885166,0.16263361723823752,-0.002174467107590092,0.0
-0.06958589787315105,0.16254698187672875,-0.002152204770112606,0.0
-0.06960976953622931,0.16258104593527864,-0.0021677615842535,0.0
-0.0696046733384935,0.16259821207502032,-0.0021554234213141707,0.0
-0.06973476049122339,0.162607868028625,-0.002180367968126293,0.0
-0.06984634039954428,0.16250916272511037,-0.002229988840817075,0.0
-0.06983695266687305,0.1625029936436407,-0.0022023620846703153,0.0
-0.06968809004880071,0.16264971049424534,-0.002128064886100875,0.0
-0.06969613667680462,0.16266499908745277,-0.0021213593627642828,0.0
-0.06981173989912746,0.16262744815676786,-0.0021138491766272993,0.0
-0.06989676593503545,0.1625990167378207,-0.0021100940835588077,0.0
-0.06989998458623702,0.16261108667982657,-0.0021119716300930535,0.0
-0.06990695833050707,0.16263388545917098,-0.0021468403514433325,0.0
-0.06996596693586908,0.1625518098535311,-0.0022023620846703153,0.0
-0.06999868988975165,0.16253008395792054,-0.00214228059557445,0.0
-0.07001746535509411,0.16256843955140585,-0.0021688344679873547,0.0
-0.07006628156498451,0.16253544837658981,-0.002221405770946237,0.0
-0.07009176255366356,0.16260116250528842,-0.002205848956805343,0.0
-0.0701395058798201,0.1625872150167483,-0.00218305017746093,0.0
-0.07016391398476529,0.16261510999382853,-0.002171248456388528,0.0
-0.07016874196156764,0.16260384471462305,-0.0022138955848092536,0.0
-0.07021487596212339,0.16256763488860546,-0.0022187235616116002,0.0
-0.070262082846413,0.16257970483061132,-0.00217285778198931,0.0
-0.07030607107950104,0.16251372248097926,-0.002212018038275008,0.0
