-0.17425965359922094,-0.03500336825887778,0.030575308868325813,0.0
-0.17423390438960842,-0.034978960153932585,0.03052193290256654,0.0
-0.1741993038891916,-0.0350232166079541,0.03047097092520844,0.0
-0.1742038636450605,-0.035022948387020636,0.030340883772478552,0.0
-0.1742422192385458,-0.03501436531714979,0.030541244809775926,0.0
-0.17422853997093915,-0.03500685513101281,0.030766282172951957,0.0
-0.17419688990079044,-0.035008732677547054,0.030565921135654584,0.0
-0.17418428351691764,-0.035019193293952144,0.03050798541402643,0.0
-0.17418642928438535,-0.03499666273554119,0.03058174617072894,0.0
-0.17422612598253798,-0.03504279673609695,0.03052541977470157,0.0
-0.17419447591238926,-0.034980301258599904,0.030538294379507825,0.0
-0.17420842340092937,-0.03497949659579951,0.030480895099746597,0.0
-0.17423363616867496,-0.034995589851807334,0.030575308868325813,0.0
-0.17426099470388826,-0.0350165110846175,0.03056404358912034,0.0
-0.17425428918055166,-0.0350232166079541,0.030481967983480452,0.0
-0.17421968868013485,-0.03498593389820264,0.030531052414304306,0.0
-0.17422934463373954,-0.03499317586340616,0.030544195240044026,0.0
-0.17423819592454384,-0.03500095427047661,0.030566189356588048,0.0
-0.1742178111336006,-0.035002295375143926,0.030575577089259277,0.0
-0.17420735051719552,-0.03503635943369382,0.030503425658157547,0.0
-0.17421244671493133,-0.03504011452676231,0.030551973647114473,0.0
-0.1742355137152092,-0.03502053439861946,0.030583355496329723,0.0
-0.17422424843600373,-0.035004441142611635,0.030515763821096876,0.0
-0.17421325137773172,-0.03500631868914588,0.030413839866380677,0.0
-0.17423175862214071,-0.035079006562114545,0.030425909808386543,0.0
-0.17422210266853602,-0.03500497758447856,0.030615542008345365,0.0
-0.17423470905240881,-0.03501436531714979,0.03057209021712425,0.0
-0.17423873236641077,-0.03505513489903628,0.03048116332068006,0.0
-0.17424490144788043,-0.03504226029423002,0.03051603204203034,0.0
-0.1742266624244049,-0.03497654616553141,0.030522469344433468,0.0
-0.17425160697121703,-0.035040382747695775,0.03060856826407531,0.0
-0.1742628722504225,-0.0350350183290265,0.030605349612873745,0.0
-0.1742548256224186,-0.035036091212760356,0.03060776360127492,0.0
-0.17422478487787066,-0.03503340900342572,0.030535343949239725,0.0
-0.1741979627845243,-0.03504065096862924,0.030539635484175143,0.0
-0.1742304175174734,-0.03503126323595801,0.030602399182605645,0.0
-0.1743197350883168,-0.03499532163087387,0.03048411375094816,0.0
-0.1743277817163207,-0.03497922837486605,0.030532393518971624,0.0
-0.17439081363568468,-0.03505406201530242,0.03053722149577397,0.0
-0.17439832382182166,-0.03502268016608717,0.03058603770566436,0.0
-0.1743833034495477,-0.03496313511885823,0.030560288496051847,0.0
-0.17441253953129524,-0.034978960153932585,0.030413035203580286,0.0
-0.1745619385912345,-0.03499612629367426,0.030502352774423692,0.0
-0.17454262668402512,-0.03497413217713024,0.03047231202987576,0.0
-0.17456086570750065,-0.035008732677547054,0.03057209021712425,0.0
-0.17460351283592138,-0.03503877342209499,0.030598107647670226,0.0
-0.17460753614992333,-0.03502750814288952,0.030540440146975534,0.0
-0.17462309296406422,-0.0350232166079541,0.030504766762824865,0.0
-0.17466815408088612,-0.03503930986396192,0.030547682112179054,0.0
-0.1746453553015417,-0.03497842371206566,0.030552241868047936,0.0
-0.17465098794114445,-0.03496984064219482,0.0305613613797857,0.0
-0.17470972832557302,-0.03501731574741789,0.03035000328421632,0.0
-0.17471106943024034,-0.03500605046821242,0.030617151333946147,0.0
-0.17468129690662584,-0.034963671560725156,0.030692521416249445,0.0
-0.17472582158158084,-0.03497708260739834,0.03065577514836492,0.0
-0.17468424733689397,-0.034960721130457055,0.030570480891523467,0.0
-0.1746826380112932,-0.0349744003980637,0.030560824937918774,0.0
-0.1746815651275593,-0.03495830714205588,0.03063243992715358,0.0
-0.17470597323250453,-0.03497037708406175,0.03064182765982481,0.0
-0.17470436390690375,-0.034966621990993256,0.030576918193926595,0.0
-0.17463489468513663,-0.03500578224727895,0.03035134438888364,0.0
-0.17461021835925797,-0.034975205060864094,0.030512813390828775,0.0
-0.17460431749872177,-0.03496608554912633,0.030658457357699558,0.0
-0.17459037001018166,-0.03498754322380342,0.030600253415137935,0.0
-0.17462014253379612,-0.034989957212204596,0.030657652694899167,0.0
-0.17460807259179026,-0.03499773561927504,0.030593011449934416,0.0
-0.17454611355616015,-0.03499773561927504,0.030696276509317937,0.0
-0.1745605974865672,-0.03496340333979169,0.030738923637738662,0.0
-0.1745493322073617,-0.03493631302551186,0.030619833543280784,0.0
-0.17453270250948696,-0.034970108863128284,0.030508253634959893,0.0
-0.17454664999802708,-0.034994248747140015,0.030598107647670226,0.0
-0.17457266742857305,-0.03498861610753728,0.030569408007789612,0.0
-0.1745391398118901,-0.03500685513101281,0.030674282392773915,0.0
-0.17457588607977462,-0.034971718188729066,0.030698958718652573,0.0
-0.17454986864922864,-0.034946237200050016,0.03061017758967609,0.0
-0.17452841097455155,-0.03499317586340616,0.03056645757752151,0.0
-0.17451312238134412,-0.034987006781936496,0.030647460299427547,0.0
-0.17452116900934803,-0.03496447622352555,0.03071102866065844,0.0
-0.1745353847188216,-0.03499103009593845,0.030571285554323858,0.0
-0.1745479911026944,-0.03501409709621633,0.030584696600997042,0.0
-0.17455281907949674,-0.03501731574741789,0.030651483613429502,0.0
-0.17456542546336953,-0.035033140782492256,0.030639950113290564,0.0
-0.17456408435870222,-0.03503770053836114,0.03054875499591291,0.0
-0.17457722718444194,-0.03505701244557052,0.03058013684512816,0.0
-0.1746461599643421,-0.03509027184132002,0.030480090436946206,0.0
-0.1746579616854145,-0.035104487550793595,0.030609641147809164,0.0
-0.1746453553015417,-0.035037432317427675,0.030716393079327713,0.0
-0.1746351629060701,-0.035006586910079344,0.030656848032098775,0.0
-0.17460834081272372,-0.03501731574741789,0.030550632542447154,0.0
-0.17459197933578244,-0.03503260434062533,0.030591670345267098,0.0
-0.17464374597594093,-0.0350291174684903,0.03050959473962721,0.0
-0.17464347775500746,-0.03502187550328678,0.03046721583213995,0.0
-0.174643209534074,-0.03502563059635527,0.030656043369298384,0.0
-0.17464213665034015,-0.035019193293952144,0.030696812951184864,0.0
-0.17461692388259456,-0.0350261670382222,0.0306093729268757,0.0
-0.174595197986984,-0.035017583968351355,0.030577454635793522,0.0
-0.1745538919632306,-0.0350047093635451,0.030577722856726986,0.0
-0.17453189784668657,-0.03496903597939443,0.030720952835196595,0.0
-0.17455362374229713,-0.03497574150273102,0.030720148172396204,0.0
-0.17458017761471004,-0.03499666273554119,0.030711565102525366,0.0
-0.17458017761471004,-0.034970913525928675,0.030539635484175143,0.0
-0.174584200928712,-0.03500685513101281,0.030507180751226038,0.0
-0.1746048539405887,-0.03503126323595801,0.03052997953057045,0.0
-0.17458876068458087,-0.035026435259155664,0.030569408007789612,0.0
-0.1745589881609664,-0.03498754322380342,0.030597302984869835,0.0
-0.17456462080056914,-0.035024289491687954,0.030574504205525422,0.0
-0.1745745449751073,-0.034983251688868004,0.03062171108981503,0.0
-0.17458661491711316,-0.035050575143167395,0.03055385119364872,0.0
-0.17467029984835383,-0.03504360139889734,0.03067750104397548,0.0
-0.17468344267409358,-0.03502455771262142,0.03076064953334922,0.0
-0.1746815651275593,-0.03505433023623589,0.030589792798732852,0.0
-0.17468746598809554,-0.035054866678102814,0.0306308306015528,0.0
-0.17470355924410336,-0.035040382747695775,0.030673477729973524,0.0
-0.1747032910231699,-0.03501946151488561,0.030578259298593913,0.0
-0.17463999088287244,-0.035079006562114545,0.03058094150792855,0.0
-0.1746373086735378,-0.03499800384020851,0.030655238706497993,0.0
-0.1746040492777883,-0.03497037708406175,0.030584696600997042,0.0
-0.1746099501383245,-0.03500846445661359,0.03056055671698531,0.0
-0.174613705231393,-0.03502884924755684,0.030611786915276874,0.0
-0.17460351283592138,-0.035016779305550964,0.03055975205418492,0.0
-0.1745302885210858,-0.03502563059635527,0.03050879007682682,0.0
-0.17452224189308188,-0.03502670348008913,0.030555996961116428,0.0
-0.1744895189391993,-0.035010342003147836,0.030496183692954027,0.0
-0.17448120409026194,-0.03503260434062533,0.030380044028764253,0.0
-0.1744578688690506,-0.035020802619552927,0.03050959473962721,0.0
-0.1744519680085144,-0.03500712335194627,0.03054875499591291,0.0
-0.17442192726396646,-0.03510180534145896,0.030417326738515705,0.0
-0.17440663867075903,-0.03509161294598734,0.030483040867214307,0.0
-0.17439269118221892,-0.035079811224914936,0.030495110809220172,0.0
-0.1744010060311563,-0.035030190352224155,0.03041839962224956,0.0
-0.1744047611242248,-0.035069618829443316,0.030370924517026488,0.0
-0.17441253953129524,-0.035081152329582255,0.03046077852973682,0.0
-0.17435272626313283,-0.03507659257371337,0.030418667843183023,0.0
-0.1743449478560624,-0.035093490492521584,0.03059408433366827,0.0
-0.17436345510047138,-0.03510502399266052,0.030580673286995087,0.0
-0.17434870294913088,-0.035070155271310244,0.03049993878602252,0.0
-0.17432751349538725,-0.035025898817288736,0.030385140226500063,0.0
-0.17432000330925027,-0.035080347666781864,0.030434224657323917,0.0
-0.17427494219242837,-0.035031531456891474,0.03041330342451375,0.0
-0.1742864756925673,-0.03506559551544136,0.030405793238376767,0.0
-0.17431142023937943,-0.03508812607385231,0.030437711529458945,0.0
-0.17431115201844596,-0.03509831846932393,0.03043449287825738,0.0
-0.1742650180178902,-0.03502884924755684,0.03038567666836699,0.0
-0.17426233580855557,-0.03506023109677209,0.030492965041752463,0.0
-0.17420440008692742,-0.0350232166079541,0.030474189576410005,0.0
-0.1741950123542562,-0.03504816115476622,0.030415985633848387,0.0
-0.17422183444760256,-0.035080347666781864,0.030407670784911012,0.0
-0.1742392688082777,-0.03505406201530242,0.030460242087869894,0.0
-0.1742797701692307,-0.03508356631798343,0.030449245029597883,0.0
-0.17425455740148513,-0.035035286549959965,0.030425909808386543,0.0
-0.17426314047135597,-0.03504279673609695,0.03051603204203034,0.0
-0.1742548256224186,-0.035068814166642925,0.03050503498375833,0.0
-0.17426099470388826,-0.03506479085264097,0.030477140006678106,0.0
-0.17423873236641077,-0.035019193293952144,0.030396405505705538,0.0
-0.1742258577616045,-0.035006586910079344,0.030376288935695762,0.0
-0.17425160697121703,-0.03499451696807348,0.030373070284494198,0.0
-0.17422344377320334,-0.035015438200883646,0.030529443088703524,0.0
-0.17421673824986675,-0.034999344944875825,0.030456755215734866,0.0
-0.17420708229626206,-0.035001758933277,0.03032532695833766,0.0
-0.17420708229626206,-0.03506747306197561,0.030365828319290678,0.0
-0.17417757799358105,-0.035000686049543143,0.030214819933750622,0.0
-0.17417167713304485,-0.035001490712343535,0.03010243536262934,0.0
-0.174163094063174,-0.0350830298761165,0.030350807947016712,0.0
-0.17412822534182373,-0.03507337392251181,0.030395600842905147,0.0
-0.1741314439930253,-0.035084102759850355,0.030425909808386543,0.0
-0.1741180329463521,-0.03507149637597756,0.030442271285327827,0.0
-0.17412098337662021,-0.0351251405626703,0.03043529754105777,0.0
-0.17411105920208206,-0.035086248527318065,0.030408475447711403,0.0
-0.17416148473757323,-0.0350800794458484,0.030236009387494253,0.0
-0.17413117577209183,-0.03506479085264097,0.030230913189758443,0.0
-0.17415477921423664,-0.03513452829534153,0.030491087495218217,0.0
-0.1741853564006515,-0.03514954866761549,0.03050879007682682,0.0
-0.1741550474351701,-0.03514042915587773,0.0304867959602828,0.0
-0.17414941479556736,-0.03511870326026717,0.03046077852973682,0.0
-0.17420064499385893,-0.03514767112108125,0.03042510514558615,0.0
-0.17416926314464368,-0.03511655749279946,0.03034222487714587,0.0
-0.17416282584224055,-0.03510851086479555,0.03032532695833766,0.0
-0.17417167713304485,-0.03512245835333566,0.03041115765704604,0.0
-0.1741601436329059,-0.03509992779492471,0.030344102423680117,0.0
-0.17414297749316424,-0.03509107650412041,0.03014105917704811,0.0
-0.17417087247024446,-0.03513265074880728,0.03047445779734347,0.0
-0.1741453914815654,-0.03511521638813214,0.030439320855059727,0.0
-0.174104085457812,-0.03511307062066443,0.03039291863357051,0.0
-0.1741188376091525,-0.035149012225748566,0.030444417052795537,0.0
-0.1741402952838296,-0.035151962656016666,0.030488673506817044,0.0
-0.1741512923421016,-0.035146061795480465,0.03042564158745308,0.0
-0.1742097645055967,-0.03511950792306756,0.030540708367908998,0.0
-0.17422398021507027,-0.035078201899314154,0.030511204065227993,0.0
-0.17418079664478262,-0.03505728066650399,0.030604813171006818,0.0
-0.1742363183780096,-0.03507230103877795,0.030458900983202575,0.0
-0.174307128704444,-0.03511199773693058,0.030375752493828834,0.0
-0.17428298882043228,-0.03510100067865857,0.03050288921629062,0.0
-0.17423605015707613,-0.035086248527318065,0.030493769704552854,0.0
-0.17424275568041273,-0.03504494250356466,0.030480895099746597,0.0
-0.1742207615638687,-0.03505701244557052,0.030382458017165426,0.0
-0.17419769456359083,-0.035025898817288736,0.030350271505149785,0.0
-0.1741883068309196,-0.035088394294785774,0.03044307594812822,0.0
-0.17418884327278653,-0.03507551968997952,0.030452195459865983,0.0
-0.1742140560405321,-0.0350409191895627,0.030393455075437437,0.0
-0.17422478487787066,-0.03505406201530242,0.03055385119364872,0.0
-0.17424060991294502,-0.035089198957586165,0.030453268343599838,0.0
-0.1742009132147924,-0.03500041782860968,0.030448440366797492,0.0
-0.17418723394718574,-0.03501785218928482,0.03045192723893252,0.0
-0.17418642928438535,-0.03504360139889734,0.03064987428782872,0.0
-0.17418294241225032,-0.03507256925971142,0.03022420766642185,0.0
-0.17418911149372,-0.03506908238757639,0.030647192078494083,0.0
-0.1741950123542562,-0.03504306495703041,0.030535880391106652,0.0
-0.17420171787759278,-0.035086248527318065,0.030495379030153636,0.0
-0.1741904525983873,-0.035046820050098904,0.03042054538971727,0.0
-0.1741883068309196,-0.03504413784076427,0.03043529754105777,0.0
-0.17427360108776105,-0.03499451696807348,0.03041705851758224,0.0
-0.17428593925070038,-0.03499746739834158,0.03032184008620263,0.0
-0.1742687731109587,-0.03498968899127113,0.03034007910967816,0.0
-0.17426314047135597,-0.03500041782860968,0.030347857516748608,0.0
-0.17427199176216027,-0.03499961316580929,0.03028965357418699,0.0
-0.17425670316895284,-0.03503904164302846,0.03034007910967816,0.0
-0.1743049829369763,-0.03500712335194627,0.030484381971881625,0.0
-0.1742569713898863,-0.03499103009593845,0.030365023656490287,0.0
-0.17424704721534814,-0.03505674422463706,0.030310574806997156,0.0
-0.1743057875997767,-0.035062913306106724,0.030361000342488332,0.0
-0.17430766514631094,-0.03498647034006957,0.030472580250809223,0.0
-0.17430551937884323,-0.034978960153932585,0.030411694098912968,0.0
-0.17427279642496066,-0.03501785218928482,0.03047150736707537,0.0
-0.17426233580855557,-0.03500846445661359,0.030463460739071458,0.0
-0.17423819592454384,-0.03494570075818309,0.030406597901177158,0.0
-0.17422022512200178,-0.034956966037388564,0.030404452133709448,0.0
-0.17425563028521898,-0.034970913525928675,0.03031298879539833,0.0
-0.17425160697121703,-0.0350106102240813,0.030250761538834756,0.0
-0.17427360108776105,-0.03499907672394236,0.030294481550989336,0.0
-0.17432724527445378,-0.03497708260739834,0.030487332402149726,0.0
-0.17432804993725418,-0.03497574150273102,0.0304358339829247,0.0
-0.1743344872396573,-0.034983251688868004,0.03033337358634157,0.0
-0.1743521898212659,-0.035016779305550964,0.030287776027652744,0.0
-0.17434521607699585,-0.034963671560725156,0.030450854355198665,0.0
-0.1743411927629939,-0.03501516997995018,0.03052193290256654,0.0
-0.1743138342277806,-0.03499988138674275,0.03040901188957833,0.0
-0.17430149606484127,-0.03501007378221437,0.03042644625025347,0.0
-0.17432429484418568,-0.03502455771262142,0.03048250442534738,0.0
-0.17432670883258686,-0.03497761904926527,0.030415985633848387,0.0
-0.17437311105407607,-0.03499773561927504,0.030325595179271123,0.0
-0.1743462889607297,-0.03500605046821242,0.03039291863357051,0.0
-0.17436023644926982,-0.03504226029423002,0.03052917486777006,0.0
-0.17436050467020328,-0.03503689587556075,0.030452463680799447,0.0
-0.17433690122805848,-0.03499907672394236,0.03032318119086995,0.0
-0.1743175893208491,-0.03499800384020851,0.030363950772756432,0.0
-0.1743293910419215,-0.035007391572879736,0.03048035865787967,0.0
-0.17435058049566513,-0.034961525793257446,0.03044307594812822,0.0
-0.1743323414721896,-0.03497922837486605,0.030442003064394364,0.0
-0.17434280208859468,-0.035031531456891474,0.03044683104119671,0.0
-0.17434870294913088,-0.03503904164302846,0.03047150736707537,0.0
-0.174325635948853,-0.03502482593355488,0.030524346890967714,0.0
-0.17433046392565535,-0.035038236980228066,0.03053507572830626,0.0
-0.17429184011123658,-0.03501731574741789,0.030435029320124308,0.0
-0.1743049829369763,-0.03504011452676231,0.03047821289041196,0.0
-0.17432402662325222,-0.035035286549959965,0.03053507572830626,0.0
-0.174325635948853,-0.03501785218928482,0.030496720134820954,0.0
-0.17430444649510937,-0.035028044584756446,0.030423764040918833,0.0
-0.17432161263485105,-0.03504145563142963,0.03048116332068006,0.0
-0.17432885460005457,-0.03503394544529265,0.03053802615857436,0.0
-0.17433582834432462,-0.03501624286368404,0.03053051597243738,0.0
-0.1743130295649802,-0.03497064530499521,0.030542049472576317,0.0
-0.17432000330925027,-0.03499022543313806,0.030482772646280843,0.0
-0.17432831815818764,-0.03497842371206566,0.030464801843738776,0.0
-0.17434548429792932,-0.035010342003147836,0.03033337358634157,0.0
-0.17432241729765144,-0.035005245805412026,0.030376020714762298,0.0
-0.17431624821618177,-0.03499532163087387,0.030599448752337544,0.0
-0.17432402662325222,-0.035015438200883646,0.030564580030987266,0.0
-0.17431329778591367,-0.03501865685208521,0.03060776360127492,0.0
-0.17432027153018373,-0.03502375304982103,0.030500475227889446,0.0
-0.17429505876243814,-0.03502348482888756,0.030384335563699672,0.0
-0.1742931812159039,-0.035036091212760356,0.030549827879646763,0.0
-0.1743218808557845,-0.035078201899314154,0.03051683670483073,0.0
-0.1743352919024577,-0.035051379805967786,0.030490282832417826,0.0
-0.1743159799952483,-0.03504816115476622,0.030458364541335648,0.0
-0.17433395079779038,-0.035036091212760356,0.03047821289041196,0.0
-0.17438410811234809,-0.03508866251571924,0.03047821289041196,0.0
-0.17439778737995473,-0.035030995015024546,0.030466679390273022,0.0
-0.17437820725181188,-0.035027239921956055,0.03040016059877403,0.0
-0.1743706970656749,-0.035071764596911026,0.030452195459865983,0.0
-0.1744039564614244,-0.035086248527318065,0.03061071403154302,0.0
-0.1744047611242248,-0.03505003870130047,0.030591402124333634,0.0
-0.17439859204275512,-0.03502697170102259,0.030424032261852297,0.0
-0.17439859204275512,-0.035014633538083255,0.030465338285605704,0.0
-0.17442273192676686,-0.0350379687592946,0.030516300262963803,0.0
-0.1744356065315731,-0.035028044584756446,0.03048250442534738,0.0
-0.17443909340370814,-0.03504279673609695,0.030214819933750622,0.0
-0.1744238048105007,-0.03503072679409108,0.030347589295815144,0.0
-0.1744549184387825,-0.03505298913156857,0.030650142508762183,0.0
-0.1744570642062502,-0.03503072679409108,0.030534539286439333,0.0
-0.1744313149966377,-0.035030190352224155,0.0304387844131928,0.0
-0.174451163345714,-0.035081152329582255,0.030423227599051906,0.0
-0.17446993881105646,-0.035090540062253484,0.03057369954272503,0.0
-0.1744688659273226,-0.03505406201530242,0.030508521855893356,0.0
-0.17445947819465138,-0.03509590448092276,0.03030145529525939,0.0
-0.17444392138051049,-0.035070959934110635,0.03041196231984643,0.0
-0.17444874935731283,-0.035079811224914936,0.030410621215179113,0.0
-0.17445652776438328,-0.035071764596911026,0.030554924077382573,0.0
-0.17444472604331088,-0.03502107084048639,0.030559215612317992,0.0
-0.17443507008970618,-0.03503072679409108,0.030531857077104697,0.0
-0.17442702346170227,-0.035054866678102814,0.030464801843738776,0.0
-0.1744385569618412,-0.03507578791091298,0.030432615331723135,0.0
-0.17441602640343026,-0.03505620778277013,0.03047016626240805,0.0
-0.17441093020569445,-0.035078201899314154,0.03028321627178386,0.0
-0.17441388063596255,-0.03511092485319672,0.030109409106899396,0.0
-0.17441978149649875,-0.035095099818122366,0.030520860018832686,0.0
-0.17442300014770032,-0.03509268582972119,0.030590865682466706,0.0
-0.17441227131036177,-0.035078201899314154,0.030405793238376767,0.0
-0.17439269118221892,-0.03504494250356466,0.03042054538971727,0.0
-0.17439376406595278,-0.0350594264339717,0.030456755215734866,0.0
-0.17439993314742244,-0.0350830298761165,0.030408475447711403,0.0
-0.17439832382182166,-0.035054866678102814,0.030293140446322017,0.0
-0.1743787436936788,-0.03508463920171728,0.03040311102904213,0.0
-0.17435138515846552,-0.03511575282999907,0.030516300262963803,0.0
-0.17436372332140485,-0.035115484609065606,0.03046292429720453,0.0
-0.1743744521587434,-0.03511065663226326,0.03035349015635135,0.0
-0.17435272626313283,-0.03512889565573879,0.03031379345819872,0.0
-0.17436721019353987,-0.035145793574547,0.030422422936251515,0.0
-0.17438866786821697,-0.03512138546960181,0.030471239146141905,0.0
-0.174362650437671,-0.035073105701578344,0.030374411389161516,0.0
-0.17431544355338138,-0.035085443864517674,0.03031593922566643,0.0
-0.17432670883258686,-0.03510395110892667,0.0304417348434609,0.0
-0.17433931521645965,-0.03507498324811259,0.030347589295815144,0.0
-0.17433207325125613,-0.035068277724776,0.030150178688785875,0.0
-0.1743307321465888,-0.03505754888743745,0.030472848471742687,0.0
-0.174336633007125,-0.035004441142611635,0.030438516192259336,0.0
-0.17438679032168272,-0.03501570642181711,0.030384335563699672,0.0
-0.1743816941239469,-0.03497627794459795,0.030377361819429616,0.0
-0.17438196234488038,-0.03497842371206566,0.03028321627178386,0.0
-0.17437123350754183,-0.034979764816732976,0.030242714910830845,0.0
-0.17438974075195082,-0.03498888432847074,0.030440661959727045,0.0
-0.17439027719381775,-0.034993444084339624,0.030524346890967714,0.0
-0.17437928013554574,-0.035039578084895384,0.030358318133153695,0.0
-0.174344143193262,-0.03503689587556075,0.030285898481118498,0.0
-0.17435111693753205,-0.03505325735250203,0.030350807947016712,0.0
-0.17436801485634026,-0.03506210864330633,0.030293140446322017,0.0
-0.17432670883258686,-0.035040382747695775,0.03024164202709699,0.0
-0.1743167846580487,-0.03510421932986013,0.030040476326999226,0.0
-0.17430900625097825,-0.03506613195730829,0.030336860458476597,0.0
-0.17430632404164362,-0.03502697170102259,0.030541244809775926,0.0
-0.17430176428577474,-0.035064522631707506,0.030318621435001067,0.0
-0.17427628329709569,-0.0350106102240813,0.030208650852280958,0.0
-0.17428191593669842,-0.03505969465490516,0.030306819713928665,0.0
-0.1742754786342953,-0.03503475010809304,0.03047606712294425,0.0
-0.17429961851830703,-0.03504869759663315,0.030263099701774085,0.0
-0.17429076722750272,-0.035046283608231976,0.030276242527513805,0.0
-0.17428915790190194,-0.03502455771262142,0.030344102423680117,0.0
-0.17430659226257708,-0.035013828875282864,0.03033927444687777,0.0
-0.17430927447191172,-0.03504413784076427,0.03032613162113805,0.0
-0.17429854563457317,-0.035047624712899295,0.030229572085091125,0.0
-0.1742851345879,-0.035037432317427675,0.030292335783521626,0.0
-0.17427574685522876,-0.035041187410496166,0.03034007910967816,0.0
-0.17428111127389803,-0.03500390470074471,0.030297431981257436,0.0
-0.17429049900656926,-0.03500417292167817,0.030218843247752578,0.0
-0.17429774097177278,-0.03504226029423002,0.030244860678298555,0.0
-0.1743020325067082,-0.03501892507301868,0.030281875167116543,0.0
-0.17431410244871406,-0.03499076187500499,0.03035644058661945,0.0
-0.1743116884603129,-0.03499451696807348,0.030364755435556823,0.0
-0.1743159799952483,-0.034994248747140015,0.030314329900065648,0.0
-0.1743449478560624,-0.03501114666594823,0.030307624376729056,0.0
-0.17434682540259663,-0.034976009723664485,0.030029479268727215,0.0
-0.1743411927629939,-0.03500926911941398,0.03026417258550794,0.0
-0.17431329778591367,-0.03500792801474666,0.030618224217680002,0.0
-0.17433931521645965,-0.0349929076424727,0.030471775588008832,0.0
-0.17438383989141462,-0.035033140782492256,0.03024298313176431,0.0
-0.17437472037967686,-0.03503475010809304,0.03023359539909308,0.0
-0.1743374376699254,-0.03499693095647465,0.030277851853114587,0.0
-0.1743116884603129,-0.03501141488688169,0.030308429039529447,0.0
-0.17430927447191172,-0.035004441142611635,0.030304405725527492,0.0
-0.17430364183230898,-0.03498298346793454,0.03020811441041403,0.0
-0.17430364183230898,-0.03499478518900694,0.030306283272061738,0.0
-0.17431839398364948,-0.0350106102240813,0.030336055795676206,0.0
-0.17431839398364948,-0.035046820050098904,0.030391845749836655,0.0
-0.1742864756925673,-0.03505084336410086,0.03042054538971727,0.0
-0.1743028371695086,-0.03502241194515371,0.030306283272061738,0.0
-0.17429720452990585,-0.03500926911941398,0.030286434922985425,0.0
-0.17428084305296457,-0.03501946151488561,0.030382994459032354,0.0
-0.17428379348323267,-0.03500336825887778,0.030370656296093024,0.0
-0.17429184011123658,-0.03502187550328678,0.03022045257335336,0.0
-0.17430230072764166,-0.035015438200883646,0.03038058047063118,0.0
-0.17430391005324244,-0.03499693095647465,0.03033551935380928,0.0
-0.17430391005324244,-0.03500390470074471,0.030088219653155765,0.0
-0.17431142023937943,-0.03505164802690125,0.030263636143641012,0.0
-0.17429505876243814,-0.03500846445661359,0.03043663864572509,0.0
-0.17431115201844596,-0.035022948387020636,0.030502352774423692,0.0
-0.17433260969312306,-0.03498861610753728,0.03041035299424565,0.0
-0.1743374376699254,-0.035013292433415936,0.030303869283660564,0.0
-0.17432885460005457,-0.035014633538083255,0.03028616670205196,0.0
-0.1743352919024577,-0.0349744003980637,0.03036019567968794,0.0
-0.17437847547274535,-0.03500846445661359,0.030282948050850397,0.0
-0.1743580906818021,-0.03499693095647465,0.030238959817762354,0.0
-0.17433582834432462,-0.03503904164302846,0.03028026584151576,0.0
-0.17433126858845574,-0.03503877342209499,0.030316207446599894,0.0
-0.17434092454206043,-0.03503555477089343,0.030299577748725146,0.0
-0.1743360965652581,-0.03504735649196583,0.030251297980701683,0.0
-0.17430632404164362,-0.03500578224727895,0.03020811441041403,0.0
-0.17431195668124636,-0.03500497758447856,0.030178341886799562,0.0
-0.17432590416978647,-0.03503770053836114,0.030358854575020622,0.0
-0.17428164771576496,-0.0350261670382222,0.030285630260185034,0.0
-0.1742325632849411,-0.03500041782860968,0.030139449851447328,0.0
-0.17425589850615245,-0.035108242643862086,0.03014535071198353,0.0
-0.17427038243655948,-0.03507632435277991,0.030331496039807324,0.0
-0.17426930955282563,-0.03509322227158812,0.03022125723615375,0.0
-0.17423765948267692,-0.03504896581756661,0.030195239805607774,0.0
-0.1742355137152092,-0.035124872341736835,0.030124697700106826,0.0
-0.17423900058734423,-0.035073910364378735,0.030114237083701742,0.0
-0.1742312221802738,-0.035086248527318065,0.0302437877945647,0.0
-0.1742199569010683,-0.03506640017824175,0.03033203248167425,0.0
-0.17421539714519943,-0.035046283608231976,0.030186388514803472,0.0
-0.1742156653661329,-0.03509536803905583,0.030272755655378777,0.0
-0.17421915223826792,-0.0350409191895627,0.03033551935380928,0.0
-0.17420466830786088,-0.0350320678987584,0.030191484712539282,0.0
-0.1742009132147924,-0.03507793367838069,0.030249420434167437,0.0
-0.1742207615638687,-0.03505701244557052,0.030278388294981515,0.0
-0.1742561667270859,-0.0350918811669208,0.03021240594534945,0.0
-0.17424034169201155,-0.035041723852363094,0.030205432201079394,0.0
-0.1742119102730644,-0.03501731574741789,0.030178341886799562,0.0
-0.1742178111336006,-0.034971718188729066,0.030229572085091125,0.0
-0.17424490144788043,-0.03501972973581907,0.030271146329777995,0.0
-0.17425670316895284,-0.03505003870130047,0.030237618713095035,0.0
-0.174248120099082,-0.035027239921956055,0.03020221354987783,0.0
-0.17425884893642055,-0.03505218446876818,0.030205432201079394,0.0
-0.17430310539044205,-0.03505674422463706,0.030252907306302465,0.0
-0.17426153114575518,-0.03503179967782494,0.030225280550155706,0.0
-0.1742422192385458,-0.0350350183290265,0.03011638285116945,0.0
-0.1742266624244049,-0.035031531456891474,0.029995146989243864,0.0
-0.17425267985495088,-0.035053525573435496,0.030185047410136154,0.0
-0.17423149040120725,-0.03502241194515371,0.030433151773590062,0.0
-0.1742282717500057,-0.035094295155321975,0.03021321060814984,0.0
-0.17424060991294502,-0.03509107650412041,0.030250225096967828,0.0
-0.17425455740148513,-0.03511736215559985,0.03032479051647073,0.0
-0.1742768197389626,-0.03511870326026717,0.03028831246951967,0.0
-0.17427440575056144,-0.035106633318261304,0.030169222375061797,0.0
-0.17425670316895284,-0.03508088410864879,0.030185852072936545,0.0
-0.17427306464589412,-0.03509697736465661,0.03023949625962928,0.0
-0.17426474979695675,-0.03507793367838069,0.030207577968547103,0.0
-0.1742355137152092,-0.035076056131846445,0.0301928258172066,0.0
-0.17421217849399787,-0.03506559551544136,0.030206773305746712,0.0
-0.1742178111336006,-0.03509161294598734,0.030225816992022633,0.0
-0.174218615796401,-0.03507847012024762,0.030211333061615595,0.0
-0.17420708229626206,-0.03507873834118108,0.030069444187813304,0.0
-0.1741904525983873,-0.035073105701578344,0.030150715130652803,0.0
-0.17417489578424641,-0.03503555477089343,0.030282679829916934,0.0
-0.1741832106331838,-0.0350623768642398,0.030159029979590177,0.0
-0.17415746142357127,-0.035053525573435496,0.03014749647945124,0.0
-0.17415102412116815,-0.03505674422463706,0.03001821398952174,0.0
-0.17414753724903312,-0.03504896581756661,0.03029260400445509,0.0
-0.17417006780744407,-0.03509027184132002,0.030333641807275033,0.0
-0.17417301823771217,-0.03506130398050594,0.03030145529525939,0.0
-0.17417382290051256,-0.03505701244557052,0.03021455171281716,0.0
-0.1741617529585067,-0.03506720484104214,0.03024888399230051,0.0
-0.1741920619239881,-0.0350350183290265,0.03029555443472319,0.0
-0.17420440008692742,-0.035045478945431585,0.03020516398014593,0.0
-0.1742245166569372,-0.03507954300398147,0.030187193177603863,0.0
-0.17421673824986675,-0.03504601538729851,0.030218843247752578,0.0
-0.17424463322694697,-0.03506613195730829,0.030253443748169392,0.0
-0.17425160697121703,-0.03508222521331611,0.03028616670205196,0.0
-0.1742687731109587,-0.035062913306106724,0.03020221354987783,0.0
-0.1742636769132229,-0.035050575143167395,0.030163857956392523,0.0
-0.17428567102976691,-0.03505459845716935,0.03023064496882498,0.0
-0.17433180503032267,-0.035088394294785774,0.030237618713095035,0.0
-0.17433985165832658,-0.03514257492334544,0.030167613049461015,0.0
-0.17432241729765144,-0.03506049931770555,0.030193094038140064,0.0
-0.17433582834432462,-0.03506023109677209,0.030216965701218332,0.0
-0.17436130933300367,-0.035070155271310244,0.030245665341098946,0.0
-0.1743744521587434,-0.03510126889959203,0.030078027257684145,0.0
-0.17434253386766121,-0.035025898817288736,0.02999407410551001,0.0
-0.1743374376699254,-0.035030190352224155,0.03024888399230051,0.0
-0.17436613730980602,-0.035088394294785774,0.030382189796231963,0.0
-0.1743492393909978,-0.03511065663226326,0.030235204724693862,0.0
-0.174362650437671,-0.03511119307413019,0.030231986073492298,0.0
-0.17436425976327177,-0.035088394294785774,0.03024298313176431,0.0
-0.17440878443822674,-0.03513265074880728,0.030235472945627326,0.0
-0.17442058615929915,-0.03511441172533175,0.030217233922151795,0.0
-0.1744246094733011,-0.035118971481200634,0.030150983351586266,0.0
-0.1744342654269058,-0.03512004436493449,0.030249420434167437,0.0
-0.1744718163575907,-0.0351516944350832,0.03034222487714587,0.0
-0.17449944311373747,-0.035120580806801416,0.030238423375895426,0.0
-0.17449595624160244,-0.03511736215559985,0.030143741386382747,0.0
-0.17448871427639892,-0.03511602105093253,0.03019497158467431,0.0
-0.1745198279046807,-0.03514713467921432,0.030243519573631236,0.0
-0.17452921563735194,-0.03514847578388164,0.030222061898954142,0.0
-0.17453645760255546,-0.035118435039333706,0.03016519906105984,0.0
-0.1745576470562991,-0.03512728633013801,0.03017163636346297,0.0
-0.17459171111484897,-0.03513667406280924,0.03025183442256861,0.0
-0.17463409002233624,-0.03517637076096186,0.030201140666143975,0.0
-0.17460163528938713,-0.035132114306940354,0.030162785072658668,0.0
-0.1745605974865672,-0.035108242643862086,0.030011776687118612,0.0
-0.17456596190523646,-0.0351369422837427,0.030172977468130288,0.0
-0.17459975774285288,-0.03515813173748633,0.030365023656490287,0.0
-0.1745694487773715,-0.0350771290155803,0.030155274886521685,0.0
-0.17458312804497814,-0.03511736215559985,0.030265781911108722,0.0
-0.17458661491711316,-0.03511521638813214,0.03032747272580537,0.0
-0.1746204107547296,-0.0351849538308327,0.030264709027374867,0.0
-0.17461504633606031,-0.03519165935416929,0.030259612829639057,0.0
-0.17458661491711316,-0.03514686645828086,0.030226889875756488,0.0
-0.17461719210352802,-0.03520453395897555,0.030285898481118498,0.0
-0.17463248069673545,-0.03522438230805186,0.030260953934306375,0.0
-0.17461263234765914,-0.0352085572729775,0.030215892817484477,0.0
-0.17457132632390573,-0.035169397016691806,0.03027731541124766,0.0
-0.17455657417256523,-0.03519836487750588,0.03026202681804023,0.0
-0.17455120975389596,-0.03519300045883661,0.03033846978407738,0.0
-0.17455362374229713,-0.035204265738042084,0.030267659457642968,0.0
-0.17454396778869244,-0.035193805121637,0.030149374025985484,0.0
-0.17451660925347914,-0.03520533862177594,0.03010967732783286,0.0
-0.1745168774744126,-0.03519809665657242,0.03016868593319487,0.0
-0.1745576470562991,-0.03524128022686007,0.030391041087036264,0.0
-0.17456381613776875,-0.035210971261378676,0.030322108307136095,0.0
-0.17457132632390573,-0.03517824830749611,0.030303869283660564,0.0
-0.17459841663818557,-0.035186026714566554,0.030329350272339614,0.0
-0.1746204107547296,-0.035197023772838565,0.030357513470353304,0.0
-0.1746129005685926,-0.035189781807635045,0.03031593922566643,0.0
-0.1746284573827335,-0.035268370541139904,0.030148032921318166,0.0
-0.17464669640620903,-0.03521633568004795,0.0301898753869385,0.0
-0.1747032910231699,-0.03524530354086203,0.030348393958615535,0.0
-0.17467405494142232,-0.03522384586618493,0.030268195899509895,0.0
-0.17468451555782744,-0.03526810232020644,0.03018907072413811,0.0
-0.17467539604608964,-0.0351997059821732,0.030249420434167437,0.0
-0.17469819482543408,-0.03524932685486398,0.030279997620582297,0.0
-0.17468585666249475,-0.03525576415726711,0.030252102643502074,0.0
-0.17465769346448104,-0.035232697156989234,0.030217233922151795,0.0
-0.17464133198753976,-0.03525254550606555,0.030277851853114587,0.0
-0.1746630578831503,-0.035238598017525435,0.03023225429442576,0.0
-0.17465742524354758,-0.03519514622630432,0.03005522847833973,0.0
-0.17464508708060825,-0.035202924633374766,0.030013386012719395,0.0
-0.17463113959206814,-0.0352056068427094,0.030392382191703583,0.0
-0.1746550112551464,-0.03521043481951175,0.03036448721462336,0.0
-0.1746772735926239,-0.03523457470352348,0.030355367702885595,0.0
-0.17466654475528534,-0.03521499457538063,0.030222330119887605,0.0
-0.17469122108116403,-0.035254691273533256,0.030217233922151795,0.0
-0.17469309862769827,-0.035232697156989234,0.030318353214067603,0.0
-0.17468290623222665,-0.03523081961045499,0.0302977002021909,0.0
-0.1746705680692873,-0.03522733273831996,0.030222061898954142,0.0
-0.17468183334849277,-0.035253081947932474,0.030203554654545148,0.0
-0.17468666132529515,-0.03523806157565851,0.030238155154961963,0.0
-0.17467995580195853,-0.035234842924456944,0.030194435142807383,0.0
-0.1746654718715515,-0.035229746726721134,0.030242178468963918,0.0
-0.174661716778483,-0.035230551389521525,0.030218038584952187,0.0
-0.1746839791159605,-0.035238598017525435,0.03029555443472319,0.0
-0.17470141347663565,-0.03524101200592661,0.030252907306302465,0.0
-0.17467673715075696,-0.03520694794737672,0.03022259834082107,0.0
-0.17468532022062783,-0.03525549593633365,0.03015500666558822,0.0
-0.17467834647635774,-0.03520346107524169,0.030224475887355315,0.0
-0.17468183334849277,-0.03521553101724756,0.030207577968547103,0.0
-0.17466413076688417,-0.03527749005287767,0.030252370864435538,0.0
-0.17464642818527557,-0.035261933238736776,0.029989246128707663,0.0
-0.17465554769701333,-0.03532496515810074,0.030149374025985484,0.0
-0.1746654718715515,-0.03529090109955085,0.030571285554323858,0.0
-0.17465662058074718,-0.03524691286646281,0.030392650412637046,0.0
-0.17466198499941646,-0.03530431214622404,0.030161980409858277,0.0
-0.17467003162742037,-0.035321746506899176,0.030197385573075483,0.0
-0.17469122108116403,-0.03532442871623381,0.030267659457642968,0.0
-0.17470490034877068,-0.035312895216094875,0.030234131840960007,0.0
-0.17466654475528534,-0.03527051630860761,0.03013381721184459,0.0
-0.17467485960422272,-0.03524396243619471,0.030158225316789786,0.0
-0.17471294697677459,-0.035272125634208396,0.030265513690175258,0.0
-0.1747188478373108,-0.03529090109955085,0.03020596864294632,0.0
-0.1746906846392971,-0.03528500023901465,0.030155274886521685,0.0
-0.17469551261609945,-0.0352809769250127,0.03020516398014593,0.0
-0.17472448047691352,-0.03523511114539041,0.03019711735214202,0.0
-0.17473896440732056,-0.035255227715400184,0.030211333061615595,0.0
-0.17474137839572174,-0.03522867384298728,0.030117187513969843,0.0
-0.1747386961863871,-0.03529519263448627,0.030134890095578445,0.0
-0.17475103434932643,-0.035321746506899176,0.030301723516192855,0.0
-0.17475157079119336,-0.03530377570435711,0.030275706085646878,0.0
-0.17472072538384503,-0.0352839273552808,0.02996135115162744,0.0
-0.17470221813943604,-0.03527963582034538,0.029970470663365206,0.0
-0.17466278966221685,-0.03524744930832974,0.03051013118149414,0.0
-0.17467190917395461,-0.03529090109955085,0.03031808499313414,0.0
-0.1746351629060701,-0.035242889552460854,0.030258808166838666,0.0
-0.1746188014291288,-0.035271320971408004,0.030162516851725205,0.0
-0.17465340192954562,-0.03531021300676024,0.030225816992022633,0.0
-0.17464562352247517,-0.03526568833180527,0.03023735049216157,0.0
-0.17461504633606031,-0.03524905863393052,0.030137572304913082,0.0
-0.17460753614992333,-0.03531021300676024,0.03018772961947079,0.0
-0.17460807259179026,-0.03529009643675046,0.03014830114225163,0.0
-0.17462738449899964,-0.0353075307974256,0.030184242747335763,0.0
-0.17463409002233624,-0.035298411285687836,0.030202481770811293,0.0
-0.17458661491711316,-0.035256837041000966,0.03005898357140822,0.0
-0.17456247503310143,-0.035298411285687836,0.03007990480421839,0.0
-0.17459573442885093,-0.03532872025116923,0.030131135002509954,0.0
-0.17458688313804663,-0.035289559994883535,0.030223939445488388,0.0
-0.17458661491711316,-0.03532925669303616,0.03015715243305593,0.0
-0.17460002596378635,-0.03531906429756454,0.030164930840126378,0.0
-0.1746019035103206,-0.03532040540223186,0.030209187294147885,0.0
-0.17456676656803685,-0.035303507483423646,0.03020516398014593,0.0
-0.17456086570750065,-0.03528473201808119,0.03012067438610487,0.0
-0.17455818349816601,-0.035286609564615434,0.02996859311683096,0.0
-0.1745501368701621,-0.03529411975075242,0.03000936269871744,0.0
-0.17455281907949674,-0.035297606622887445,0.03038138513343157,0.0
-0.17456676656803685,-0.03527158919234147,0.03023359539909308,0.0
-0.17454530889335976,-0.03529921594848823,0.03015554310745515,0.0
-0.17455550128883138,-0.035322282948766104,0.0301810240961342,0.0
-0.17456918055643803,-0.0353163820882299,0.030054960257406265,0.0
-0.17454879576549479,-0.035317991413830685,0.030194703363740846,0.0
-0.17451634103254568,-0.03528634134368197,0.030245665341098946,0.0
-0.17450239354400557,-0.03530028883222208,0.0301957762474747,0.0
-0.17451419526507797,-0.03530833546022599,0.030210528398815203,0.0
-0.17450427109053981,-0.03529411975075242,0.030063811548210567,0.0
-0.17449220114853395,-0.03530297104155672,0.030075881490216436,0.0
-0.1745109766138764,-0.03530887190209292,0.03009814382769392,0.0
-0.17450534397427367,-0.03530592147182482,0.030177000782132243,0.0
-0.17453297073042043,-0.03533730332104007,0.030110750211566714,0.0
-0.17453109318388618,-0.035353664797981355,0.030112091316234033,0.0
-0.17453109318388618,-0.03535715167011638,0.030132744328110736,0.0
-0.17452492410241652,-0.03531825963476415,0.030143473165449283,0.0
-0.17454772288176093,-0.03534105841410856,0.030161712188924814,0.0
-0.17452519232334998,-0.0353348893326389,0.030128452793175317,0.0
-0.17453216606762004,-0.035362516088785656,0.030055496699273192,0.0
-0.17454960042829518,-0.03540167634507135,0.029983613489104926,0.0
-0.1745597928237668,-0.035370562716789566,0.03002626061752565,0.0
-0.17454906398642825,-0.035322282948766104,0.030316475667533357,0.0
-0.17456086570750065,-0.035342667739709344,0.030163053293592132,0.0
-0.1745884924636474,-0.03536573473998722,0.03014105917704811,0.0
-0.17457588607977462,-0.03539497082173476,0.03026846412044336,0.0
-0.17455737883536562,-0.035406236100940236,0.030273828539112632,0.0
-0.1745960026497844,-0.03543037598495197,0.030193898700940455,0.0
-0.17457695896350847,-0.03539389793800091,0.030177000782132243,0.0
-0.17459627087071786,-0.03540006701947057,0.030211869503482522,0.0
-0.1746010988475202,-0.03538021867039426,0.03017968299146688,0.0
-0.1745960026497844,-0.03537002627492264,0.03006917596687984,0.0
-0.17461343701045953,-0.03539389793800091,0.03007051707154716,0.0
-0.17462899382460043,-0.03541374628707722,0.030181292317067662,0.0
-0.17461772854539495,-0.035385851309996996,0.03015715243305593,0.0
-0.17461182768485875,-0.03541616027547839,0.030102971804496267,0.0
-0.17461826498726188,-0.035400335240404035,0.030109140885965932,0.0
-0.17463864977820512,-0.03539416615893437,0.030049864059670455,0.0
-0.17464186842940668,-0.035416428496411856,0.030167613049461015,0.0
-0.1745855420333793,-0.03539872591480325,0.030269805225110677,0.0
-0.17458956534738126,-0.03541884248481303,0.03019497158467431,0.0
-0.17458661491711316,-0.03539631192640208,0.030237082271228108,0.0
-0.17459117467298205,-0.03537002627492264,0.030158225316789786,0.0
-0.17457615430070808,-0.03542688911281694,0.03003779411766459,0.0
-0.1745664983471034,-0.03545800274109873,0.030077490815817218,0.0
-0.17458071405657696,-0.03540409033347253,0.03022715809668995,0.0
-0.1745922475567159,-0.03543815439202242,0.030204091096412075,0.0
-0.17456140214936758,-0.03541079585680912,0.030141595618915037,0.0
-0.17453887159095663,-0.035429571322151576,0.030024383070991405,0.0
-0.174554696626031,-0.03544298236882477,0.030167076607594087,0.0
-0.17454906398642825,-0.03543359463615354,0.030252639085369,0.0
-0.1745273380908177,-0.035446469240959795,0.030152860898120512,0.0
-0.17450158888120518,-0.035425011566282694,0.030076417932083363,0.0
-0.1744954197997355,-0.03543895905482281,0.030135694758378836,0.0
-0.17452921563735194,-0.03546444004350186,0.03015554310745515,0.0
-0.17450239354400557,-0.03537726824012616,0.030090633641556938,0.0
-0.17451124483480987,-0.0353888017402651,0.029956523174825094,0.0
-0.17454396778869244,-0.03542045181041381,0.030252639085369,0.0
-0.17459278399858283,-0.035468999799370744,0.030364218993689896,0.0
-0.1745892971264478,-0.035460416729499906,0.03009304762995811,0.0
-0.17458607847524624,-0.03543734972922203,0.030027869943126433,0.0
-0.17457856828910925,-0.03540569965907331,0.03012872101410878,0.0
-0.17458178694031082,-0.035408381868407945,0.030258003504038275,0.0
-0.1745943933241836,-0.0354212564732142,0.030145618932916993,0.0
-0.17458768780084702,-0.035431985310552756,0.03007427216461565,0.0
-0.17459171111484897,-0.035432521752419684,0.03014240028171543,0.0
-0.1745884924636474,-0.03539067928679934,0.03022474410828878,0.0
-0.1746010988475202,-0.03538155977506158,0.030209991956948276,0.0
-0.17458285982404467,-0.03536278430971912,0.03003135681526146,0.0
-0.17457400853324037,-0.035403285670672135,0.0300428903154004,0.0
-0.17455657417256523,-0.03544620102002633,0.03028455737645118,0.0
-0.1745863466961797,-0.035472754892439236,0.03013167144437688,0.0
-0.17458366448684506,-0.03543305819428661,0.02989349125546113,0.0
-0.17455737883536562,-0.03541106407774258,0.030149642246918948,0.0
-0.17460297639405445,-0.03544030015949013,0.030321303644335704,0.0
-0.17461316878952607,-0.03544593279909287,0.03020435931734554,0.0
-0.17462094719659652,-0.03542474334534923,0.03014991046785241,0.0
-0.17460592682432255,-0.03540221278693828,0.030105654013830904,0.0
-0.1746174603244615,-0.035433862857087,0.030142936723582356,0.0
-0.17462067897566305,-0.03542688911281694,0.030148837584118557,0.0
-0.17463864977820512,-0.03541723315921225,0.030016336442987495,0.0
-0.17464294131314054,-0.03549394434618287,0.030071858176214477,0.0
-0.17463838155727165,-0.03545907562483259,0.030212137724415986,0.0
-0.17466574009248495,-0.03548750704377974,0.030211333061615595,0.0
-0.17466064389474914,-0.03543788617108896,0.03017592789839839,0.0
-0.1746424048712736,-0.03541911070574649,0.030038330559531517,0.0
-0.1746381133363382,-0.035443518810691695,0.030134890095578445,0.0
-0.17465393837141255,-0.03544539635722594,0.03019497158467431,0.0
-0.1746469646271425,-0.03544915145029443,0.0301987266777428,0.0
-0.17462738449899964,-0.03546363538070147,0.030071053513414086,0.0
-0.17464186842940668,-0.03547677820644119,0.029922459116275207,0.0
-0.174661716778483,-0.03549287146244901,0.030337665121276988,0.0
-0.1746743231623558,-0.03549501722991672,0.030431810668922744,0.0
-0.1746335535804693,-0.03545639341549795,0.03016519906105984,0.0
-0.17463569934793702,-0.035427961996550794,0.030152324456253585,0.0
-0.174643209534074,-0.035460953171366834,0.030209991956948276,0.0
-0.17463596756887048,-0.035470609124971526,0.030197385573075483,0.0
-0.1746276527199331,-0.03544325058975823,0.03005978823420861,0.0
-0.17463757689447126,-0.03549206679964862,0.02999997496604621,0.0
-0.17463757689447126,-0.0354966265555175,0.03022420766642185,0.0
-0.17465071972021098,-0.03543359463615354,0.030272487434445314,0.0
-0.17465367015047908,-0.035466049369102644,0.030102167141695876,0.0
-0.1746512561620779,-0.03546363538070147,0.030075613269282972,0.0
-0.17465554769701333,-0.03543654506642164,0.030155811328388613,0.0
-0.17467673715075696,-0.0354641718225684,0.03020945551508135,0.0
-0.17466895874368651,-0.03547758286924158,0.03014910580505202,0.0
-0.17460431749872177,-0.03539979879853711,0.03014535071198353,0.0
-0.17463301713860238,-0.03548267906697739,0.03008634210662152,0.0
-0.17467190917395461,-0.03552130288139616,0.030156079549322076,0.0
-0.17464642818527557,-0.03546873157843728,0.03013220788624381,0.0
-0.17458527381244585,-0.03541616027547839,0.02986720560398169,0.0
-0.17460351283592138,-0.0354612213923003,0.03014105917704811,0.0
-0.17460565860338909,-0.03548321550884432,0.03031674388846682,0.0
-0.17462094719659652,-0.03547946041577583,0.0301987266777428,0.0
-0.17460887725459065,-0.0354553205317641,0.030071858176214477,0.0
-0.17459358866138322,-0.0354730231133727,0.030083659897286882,0.0
-0.17456596190523646,-0.03546283071790108,0.030145082491050065,0.0
-0.17455362374229713,-0.03547650998550773,0.03013676764211269,0.0
-0.1745345800560212,-0.035435472182687784,0.030051205164337774,0.0
-0.17451231771854372,-0.035457466299231806,0.030054155594605874,0.0
-0.174536189381622,-0.03547248667150577,0.030147764700384702,0.0
-0.17453189784668657,-0.03552559441633158,0.030095461618359284,0.0
-0.17447986298559462,-0.035453711206163314,0.030104849351030513,0.0
-0.17448764139266507,-0.03542983954308504,0.029944185011885765,0.0
-0.17453297073042043,-0.03546363538070147,0.030021969082590232,0.0
-0.17454960042829518,-0.035549197858476385,0.030295286213789727,0.0
-0.1745493322073617,-0.035515670241793425,0.030179414770533416,0.0
-0.1745493322073617,-0.03549930876485214,0.030086610327554983,0.0
-0.1745605974865672,-0.03552747196286583,0.030124429479173362,0.0
-0.1745605974865672,-0.035521571102329626,0.030105654013830904,0.0
-0.17453350717228736,-0.03549340790431594,0.029898319232263475,0.0
-0.17456006104470026,-0.035517816009261134,0.030055764920206656,0.0
-0.17456676656803685,-0.03550574606725527,0.03025907638777213,0.0
-0.17453994447469048,-0.035461757834167225,0.03021455171281716,0.0
-0.17453592116068853,-0.035484288392578174,0.030228230980423806,0.0
-0.17452251011401534,-0.03546658581096957,0.030163053293592132,0.0
-0.17451419526507797,-0.03548992103218091,0.03006112933887593,0.0
-0.17452814275361808,-0.03553256816060164,0.030129257455975708,0.0
-0.17453565293975506,-0.03553766435833745,0.03013220788624381,0.0
-0.17449810200907015,-0.035496090113650576,0.030091974746224256,0.0
-0.17447396212505842,-0.03547141378777192,0.030124161258239898,0.0
-0.1745168774744126,-0.0354907256949813,0.03014696003758431,0.0
-0.17450641685800752,-0.0355151337999265,0.030134890095578445,0.0
-0.17449220114853395,-0.03550279563698717,0.030001852512580456,0.0
-0.1744667201598549,-0.035506282509122196,0.029857549650376996,0.0
-0.17448174053212887,-0.035529617730333536,0.0302467382248328,0.0
-0.17449139648573356,-0.03552774018379929,0.03033551935380928,0.0
-0.1744755714506592,-0.03551835245112806,0.030077222594883754,0.0
-0.17446269684585294,-0.03555375761434527,0.030036184792063807,0.0
-0.17446242862491948,-0.03558889455662901,0.03011691929303638,0.0
-0.17447879010186076,-0.0355505389631437,0.030183706305468835,0.0
-0.1744541137759821,-0.03548911636938052,0.030104044688230122,0.0
-0.17443185143850462,-0.03550440496258795,0.029999438524179283,0.0
-0.1744667201598549,-0.035574678847155435,0.030089024315956156,0.0
-0.1745125859394772,-0.03559479541716521,0.03008848787408923,0.0
-0.17449863845093708,-0.03556099957954879,0.030079368362351463,0.0
-0.17447127991572378,-0.03554597920727482,0.029994610547376937,0.0
-0.17446135574118563,-0.035547856753809066,0.029980126616969898,0.0
-0.17446618371798797,-0.035574678847155435,0.030120406165171407,0.0
-0.17445384555504864,-0.03554356521887365,0.03007346750181526,0.0
-0.17444284849677663,-0.03554034656767208,0.029954377407357385,0.0
-0.17444472604331088,-0.03553739613740398,0.029935333721081463,0.0
-0.17443399720597233,-0.03551164692779147,0.029861036522512024,0.0
-0.17442863278730306,-0.03554222411420633,0.030142132060781965,0.0
-0.174410661984761,-0.03550225919512024,0.030103508246363195,0.0
-0.17442058615929915,-0.03554732031194214,0.030017945768588277,0.0
-0.17442514591516803,-0.035517816009261134,0.030141595618915037,0.0
-0.17443238788037155,-0.03552130288139616,0.030105922234764368,0.0
-0.17441629462436373,-0.035503332078854095,0.029935333721081463,0.0
-0.17442219548489993,-0.035519961776728844,0.02995840072135934,0.0
-0.17443238788037155,-0.03553846902113784,0.030040476326999226,0.0
-0.1744675248226553,-0.035571728416887334,0.029965374465629396,0.0
-0.17442514591516803,-0.03552559441633158,0.030014190675519786,0.0
-0.17440583400795864,-0.03551674312552728,0.03003645301299727,0.0
-0.17442434125236764,-0.03550950116032376,0.030089024315956156,0.0
-0.17445625954344982,-0.0355416876723394,0.03008929253688962,0.0
-0.17445599132251635,-0.0355121833696584,0.030000511407913138,0.0
-0.17447074347385685,-0.03555107540501063,0.029902074325331967,0.0
-0.17445545488064942,-0.03555268473061141,0.02999997496604621,0.0
-0.17444392138051049,-0.035542760556073257,0.029828313568629455,0.0
-0.17444579892704473,-0.03556770510288538,0.030099216711427776,0.0
-0.17442621879890188,-0.03553793257927091,0.03009143830435733,0.0
-0.17442916922916998,-0.03556341356794996,0.030038330559531517,0.0
-0.1744267552407688,-0.0355660957772846,0.030073199280881795,0.0
-0.17442300014770032,-0.0355690462075527,0.030023578408191014,0.0
-0.1744195132755653,-0.035552148288744485,0.029964033360962077,0.0
-0.17444579892704473,-0.03555617160274644,0.029998097419511965,0.0
-0.1744755714506592,-0.03558728523102823,0.030041012768866154,0.0
-0.1744675248226553,-0.03554034656767208,0.030046913629402355,0.0
-0.1744385569618412,-0.035514865578993034,0.029877934441320236,0.0
-0.17443453364783926,-0.03552183932326309,0.029947940104954256,0.0
-0.1744364111943735,-0.03554892963754292,0.03015420200278783,0.0
-0.1744224637058334,-0.035546247428208284,0.0300517416062047,0.0
-0.17438813142635004,-0.03557628817275622,0.030014727117386713,0.0
-0.17440342001955747,-0.035580579707691636,0.030008289814983585,0.0
-0.1743905454147512,-0.03556099957954879,0.030105922234764368,0.0
-0.1744267552407688,-0.03558943099849594,0.02999568343111079,0.0
-0.17439349584501931,-0.0355269355209989,0.029741946428054146,0.0
-0.1743715017284753,-0.035522912206996944,0.029931846848946436,0.0
-0.17439832382182166,-0.03558808989382862,0.030177000782132243,0.0
-0.17440234713582362,-0.035522912206996944,0.030172977468130288,0.0
-0.17440288357769054,-0.035577897498357,0.030135426537445373,0.0
-0.17438088946114652,-0.03554812497474253,0.03015205623532012,0.0
-0.1743774025890115,-0.035548393195675994,0.03005522847833973,0.0
-0.17437176994940876,-0.035568241544752306,0.029991660117108836,0.0
-0.174373647495943,-0.03555375761434527,0.02996054648882705,0.0
-0.17438518099608194,-0.0355837983588932,0.029922995558142134,0.0
-0.17437767080994496,-0.03554356521887365,0.030086610327554983,0.0
-0.17438383989141462,-0.03555965847488147,0.030103508246363195,0.0
-0.17439698271715434,-0.03553364104433549,0.03001606822205403,0.0
-0.17438732676354965,-0.035567436881951915,0.029955718512024703,0.0
-0.17439912848462205,-0.03559399075436482,0.030040208106065763,0.0
-0.1743929594031524,-0.03555885381208108,0.02994525789561962,0.0
-0.174421659043033,-0.035598818731167166,0.029774132940069788,0.0
-0.17443694763624043,-0.03560793824290493,0.030162785072658668,0.0
-0.17443158321757116,-0.035606865359171076,0.030151519793453194,0.0
-0.17445920997371792,-0.03560954756850571,0.030076417932083363,0.0
-0.17446430617145373,-0.035603110266102585,0.030034039024596098,0.0
-0.1744283645663696,-0.035562340684216105,0.03003269791992878,0.0
-0.17443587475250658,-0.03560069627770141,0.030079368362351463,0.0
-0.17446189218305255,-0.03558808989382862,0.03008124590888571,0.0
-0.1745029299858725,-0.035580579707691636,0.0300517416062047,0.0
-0.1744999795556044,-0.03560927934757225,0.029980663058836825,0.0
-0.17449193292760048,-0.035573337742488116,0.029978517291369116,0.0
-0.17451044017200948,-0.03559613652183253,0.030079100141418,0.0
-0.17452814275361808,-0.03558245725422588,0.03011343242090135,0.0
-0.17453779870722277,-0.035560194916748396,0.03002116441978984,0.0
-0.17454262668402512,-0.03553149527686778,0.030013386012719395,0.0
-0.1745568423934987,-0.0355357868118032,0.030053619152738947,0.0
-0.17457320387043998,-0.035549197858476385,0.030017945768588277,0.0
-0.17456730300990378,-0.03551406091619264,0.029802296138083478,0.0
-0.17457990939377657,-0.03552827662566622,0.029836360196633365,0.0
-0.17460136706845367,-0.035571728416887334,0.030209991956948276,0.0
-0.17461906965006227,-0.03556126780048225,0.030179414770533416,0.0
-0.17466869052275305,-0.035566632219151524,0.03009948493236124,0.0
-0.17465045149927752,-0.035539810125805156,0.02999997496604621,0.0
-0.1746453553015417,-0.0355387372420713,0.029993537663643082,0.0
-0.17466627653435188,-0.03555831737021415,0.029990319012441518,0.0
-0.17465259726674523,-0.035568777986619234,0.030090365420623474,0.0
-0.17462711627806618,-0.03552639907913197,0.03009143830435733,0.0
-0.17460941369645758,-0.03552908128846661,0.029917899360406324,0.0
-0.17464481885967478,-0.035581920812358954,0.029994610547376937,0.0
-0.17462362940593115,-0.03556395000981689,0.030068639525012913,0.0
-0.17462738449899964,-0.03557575173088929,0.029973421093633306,0.0
-0.17461343701045953,-0.035574678847155435,0.029928359976811408,0.0
-0.17460002596378635,-0.03558943099849594,0.02996644734936325,0.0
-0.17459707553351825,-0.03561491198717499,0.030017677547654813,0.0
-0.17456542546336953,-0.03557521528902236,0.029983345268171462,0.0
-0.17455657417256523,-0.03557870216115739,0.029961082930693977,0.0
-0.17454530889335976,-0.03555778092834722,0.0299948787683104,0.0
-0.1745538919632306,-0.03556475467261728,0.02977493760287018,0.0
-0.17454074913749087,-0.0355719966378208,0.029781106684339843,0.0
-0.17452814275361808,-0.035609011126638786,0.030142668502648892,0.0
-0.17450748974174138,-0.03556931442848616,0.030081782350752637,0.0
-0.17448871427639892,-0.03558326191702627,0.03005093694340431,0.0
-0.17448334985772965,-0.03562510438264661,0.03003350258272917,0.0
-0.1744385569618412,-0.03560659713823761,0.03005093694340431,0.0
-0.17444633536891166,-0.035597209405566384,0.03001311779178593,0.0
-0.1744356065315731,-0.035592917870630965,0.030036184792063807,0.0
-0.1744120030894283,-0.03556931442848616,0.030101898920762413,0.0
-0.17439644627528741,-0.0355867487891613,0.029986295698439563,0.0
-0.1743862538798158,-0.03561088867317303,0.03002545595472526,0.0
-0.1743656008679391,-0.035536055032736664,0.0301300621187761,0.0
-0.17439403228688624,-0.0355505389631437,0.030078027257684145,0.0
-0.1743639915423383,-0.03555161184687756,0.029999438524179283,0.0
-0.17437257461220915,-0.03556099957954879,0.029938552372283028,0.0
-0.17436452798420524,-0.03553766435833745,0.029733095137249844,0.0
-0.17438142590301345,-0.03559747762649985,0.030069712408746768,0.0
-0.17438008479834613,-0.03557065553315348,0.030214819933750622,0.0
-0.17436077289113674,-0.03555992669581493,0.03004449964100118,0.0
-0.17439644627528741,-0.03557923860302432,0.030075076827416045,0.0
-0.1744313149966377,-0.0355985505102337,0.030027333501259506,0.0
-0.1744136124150291,-0.0355985505102337,0.029975298640167552,0.0
-0.17440932088009367,-0.035631541685049735,0.029995951652044255,0.0
-0.17445813708998406,-0.03561491198717499,0.03006542087381135,0.0
-0.17445947819465138,-0.03557441062622197,0.030036721233930735,0.0
-0.1744570642062502,-0.03557360596342158,0.030136231200245764,0.0
-0.174469670590123,-0.03559130854503018,0.030025187733791796,0.0
-0.1744675248226553,-0.035609011126638786,0.029884639964656828,0.0
-0.17446537905518758,-0.035607401801038004,0.030038867001398444,0.0
-0.17444579892704473,-0.03562751837104778,0.02999273300084269,0.0
-0.17444392138051049,-0.035618398859310015,0.02995705961669202,0.0
-0.17442353658956725,-0.03557736105649007,0.030041280989799617,0.0
-0.17443372898503887,-0.035621349289578115,0.030064616211010958,0.0
-0.1744667201598549,-0.03563127346411627,0.02998683214030649,0.0
-0.17445143156664747,-0.0356015009405018,0.029922995558142134,0.0
-0.1744415073921093,-0.03559935517303409,0.02998683214030649,0.0
-0.17446537905518758,-0.03565755911559571,0.030008558035917048,0.0
-0.17443480186877272,-0.03559452719623175,0.02995115875615582,0.0
-0.17444123917117585,-0.03559533185903214,0.029673550090020907,0.0
-0.17443775229904082,-0.035617594196509623,0.029925141325609843,0.0
-0.17443372898503887,-0.035606865359171076,0.030089828978756547,0.0
-0.17442943745010345,-0.035651121813192584,0.029980394837903362,0.0
-0.17441173486849484,-0.03564924426665834,0.03002840638499336,0.0
-0.17441253953129524,-0.035650585371325656,0.030033770803662634,0.0
-0.17442139082209954,-0.035631541685049735,0.0300399398851323,0.0
-0.17443909340370814,-0.03560927934757225,0.0300369894548642,0.0
-0.17443185143850462,-0.03564522095265638,0.02997663974483487,0.0
-0.17441093020569445,-0.035646830278257165,0.03000346183818124,0.0
-0.17440958910102713,-0.035606865359171076,0.02998817324497381,0.0
-0.17443238788037155,-0.03564280696425521,0.03001955509418906,0.0
-0.17444660358984512,-0.0356495124875918,0.02997449397736716,0.0
-0.17441736750809758,-0.03560337848703605,0.02970788236950426,0.0
-0.17441119842662792,-0.03562376327797929,0.02992058156974096,0.0
-0.1744187086127649,-0.03566989727853504,0.030248615771367046,0.0
-0.17439161829848507,-0.035615448429041914,0.030033770803662634,0.0
-0.17441093020569445,-0.03562993235944895,0.029879543766921018,0.0
-0.17439644627528741,-0.03561008401037264,0.029973421093633306,0.0
-0.17439912848462205,-0.035617057754642696,0.02998468637283878,0.0
-0.17439644627528741,-0.03561008401037264,0.029913071383603978,0.0
-0.1743833034495477,-0.035624299719846216,0.029921654453474816,0.0
-0.17439751915902127,-0.03560418314983644,0.029929701081478726,0.0
-0.1744283645663696,-0.03563636966185208,0.02992192267440828,0.0
-0.1744120030894283,-0.03563610144091862,0.030022773745390623,0.0
-0.17440556578702518,-0.03560069627770141,0.02996778845403057,0.0
-0.1744047611242248,-0.03558835811476208,0.029945794337486547,0.0
-0.17440127425208976,-0.03558835811476208,0.03001445889645325,0.0
-0.174392154740352,-0.03561169333597342,0.029971275326165597,0.0
-0.1743618457748706,-0.0355926496496975,0.029975298640167552,0.0
-0.17435862712366904,-0.035606865359171076,0.029949281209621575,0.0
-0.17436211399580406,-0.03562966413851549,0.029983345268171462,0.0
-0.17435460380966708,-0.03559318609156443,0.030027869943126433,0.0
-0.17436023644926982,-0.03559399075436482,0.029971275326165597,0.0
-0.17435406736780015,-0.03561813063837655,0.029916290034805542,0.0
-0.1743390469955262,-0.035614107324374596,0.029950622314288893,0.0
-0.17433046392565535,-0.035634492115317835,0.030032966140862243,0.0
-0.17432885460005457,-0.03564924426665834,0.029922190895341743,0.0
-0.17431651643711524,-0.03562027640584426,0.02992996930241219,0.0
-0.17431437066964753,-0.03557736105649007,0.02978164312620677,0.0
-0.17436935596100758,-0.03565648623186186,0.029716197218441633,0.0
-0.17435058049566513,-0.03561383910344113,0.030209991956948276,0.0
-0.17433341435592345,-0.03562537260358007,0.030072394618081404,0.0
-0.17433851055365926,-0.035619203522110406,0.030010435582451294,0.0
-0.17432751349538725,-0.035591576765963646,0.030028674605926824,0.0
-0.17433046392565535,-0.03560418314983644,0.02989134548799342,0.0
-0.17431544355338138,-0.03567204304600275,0.02984467504557074,0.0
-0.17428620747163384,-0.035633687452517444,0.030055764920206656,0.0
-0.17430820158817786,-0.035657827336529176,0.030066493757545203,0.0
-0.1743100791347121,-0.03565299935972683,0.030007485152183194,0.0
-0.17430391005324244,-0.035639588313053645,0.029894832360128448,0.0
-0.17428835323910155,-0.035629395917582025,0.029872033580784035,0.0
-0.17427816084362993,-0.03566453285986577,0.029998633861378892,0.0
-0.17428567102976691,-0.035630737022249344,0.030088219653155765,0.0
-0.1742835252622992,-0.035656218010928394,0.029813561417288952,0.0
-0.17428325704136574,-0.03564817138292448,0.02987015603424979,0.0
-0.1743012278439078,-0.03563422389438437,0.030111018432500178,0.0
-0.174314638890581,-0.03562778659198124,0.030001584291646993,0.0
-0.1743478982863305,-0.03565219469692644,0.029865596278380906,0.0
-0.17433582834432462,-0.03568143077867398,0.02979827282408152,0.0
-0.17430095962297434,-0.035700742685883365,0.029925409546543307,0.0
-0.17430042318110742,-0.03565434046439415,0.029995951652044255,0.0
-0.17431195668124636,-0.03564709849919063,0.02989805101133001,0.0
-0.17430230072764166,-0.03565031715039219,0.029867473824915152,0.0
-0.17432107619298412,-0.03569323249974638,0.029939625256016882,0.0
-0.1743875949844831,-0.03572863766296359,0.029904756534666604,0.0
-0.17436881951914066,-0.03566399641799884,0.029832873324498337,0.0
-0.17435460380966708,-0.035667215069200404,0.029810879207954315,0.0
-0.1743656008679391,-0.03571656772095772,0.029934529058281072,0.0
-0.17436452798420524,-0.035695646488147555,0.029894832360128448,0.0
-0.17435996822833635,-0.03572676011642934,0.029856208545709677,0.0
-0.17434226564672775,-0.03569725581374834,0.030003730059114702,0.0
-0.1743264406116534,-0.035699401581216046,0.029927555314011017,0.0
-0.17432134441391758,-0.03568786808107711,0.029948476546821184,0.0
-0.1743360965652581,-0.035685454092675935,0.029930505744279117,0.0
-0.1743382423327258,-0.03567177482506929,0.02990529297653353,0.0
-0.17430256894857513,-0.03564146585958789,0.029737386672185263,0.0
-0.1743159799952483,-0.035684112988008616,0.029853794557308504,0.0
-0.17432804993725418,-0.03566694684826694,0.030170563479729115,0.0
-0.17432912282098803,-0.03564709849919063,0.02999407410551001,0.0
-0.17429774097177278,-0.035625909045447,0.029916290034805542,0.0
-0.17431705287898216,-0.035646025615456774,0.02996644734936325,0.0
-0.17434655718166317,-0.035684649429875544,0.029971275326165597,0.0
-0.17432375840231876,-0.03562537260358007,0.02996269225629476,0.0
-0.17432322196045183,-0.03563502855718476,0.029893223034527665,0.0
-0.17432697705352032,-0.03562242217331197,0.03000936269871744,0.0
-0.1743411927629939,-0.035625640824513534,0.02999568343111079,0.0
-0.17432456306511915,-0.03565380402252722,0.02995410918642392,0.0
-0.1743020325067082,-0.0356495124875918,0.02991897224414018,0.0
-0.17429291299497043,-0.035645489173589846,0.030032966140862243,0.0
-0.17428701213443423,-0.03565031715039219,0.030057106024873975,0.0
-0.1742738693086945,-0.03563422389438437,0.029990050791508054,0.0
-0.17424865654094893,-0.03565380402252722,0.029887322173991464,0.0
-0.17425723961081976,-0.03569698759281487,0.02976340410273124,0.0
-0.17425214341308395,-0.03562161751051158,0.029928896418678335,0.0
-0.17424946120374932,-0.03563341923158398,0.030128989235042244,0.0
-0.17426474979695675,-0.035640929417720964,0.029929432860545262,0.0
-0.17428164771576496,-0.03566614218546655,0.029894832360128448,0.0
-0.17428620747163384,-0.03564307518518867,0.02998763680310688,0.0
-0.17430310539044205,-0.03570127912775029,0.02987391112731828,0.0
-0.1742894261228354,-0.03570717998828649,0.029964033360962077,0.0
-0.1742998867392405,-0.03567874856933934,0.030016872884854422,0.0
-0.1743478982863305,-0.035676066360004706,0.029997292756711574,0.0
-0.17435460380966708,-0.03569671937188141,0.029925409546543307,0.0
-0.17434843472819742,-0.03569511004628063,0.02995464562829085,0.0
-0.1743433385304616,-0.035680357894940125,0.03006193400167632,0.0
-0.1743639915423383,-0.035699938023082974,0.030093852292758502,0.0
-0.17438383989141462,-0.035702888453351074,0.029920313348807497,0.0
-0.174362650437671,-0.03571495839535694,0.029847089033971912,0.0
-0.17437767080994496,-0.03572756477922973,0.029969129558697887,0.0
-0.17440637044982557,-0.03571361729068962,0.03000936269871744,0.0
-0.1744224637058334,-0.03570208379055068,0.02998763680310688,0.0
-0.1744393616246416,-0.03567794390653895,0.029837164859433756,0.0
-0.17444204383397624,-0.03568384476707515,0.029698226415899566,0.0
-0.17445813708998406,-0.03571334906975616,0.030078027257684145,0.0
-0.17446806126452222,-0.03573024698856437,0.030093852292758502,0.0
-0.1744608192993187,-0.03570530244175225,0.029969129558697887,0.0
-0.1744578688690506,-0.03568062611587359,0.02988624929025761,0.0
-0.1744734256831915,-0.0357093257557542,0.02989429591826152,0.0
-0.17449220114853395,-0.03569189139507906,0.02994177102348459,0.0
-0.17451312238134412,-0.03574178048870331,0.029999438524179283,0.0
-0.1745096355092091,-0.035724882569895096,0.02993721126761571,0.0
-0.17449649268346937,-0.03571147152322191,0.029879543766921018,0.0
-0.1744932740322678,-0.0357063753254861,0.03001606822205403,0.0
-0.1744911282648001,-0.035744462698037945,0.02997368931456677,0.0
-0.1744637697295868,-0.03567660280187163,0.029799345707815374,0.0
-0.1744608192993187,-0.03572461434896163,0.029863450510913197,0.0
-0.17447798543906037,-0.03570530244175225,0.03006998062968023,0.0
-0.17449300581133434,-0.03571254440695577,0.02996215581442783,0.0
-0.17449059182293317,-0.035708789313887275,0.029910657395202805,0.0
-0.17449488335786859,-0.035685454092675935,0.029997560977645037,0.0
-0.17450909906734216,-0.03570691176735303,0.030054960257406265,0.0
-0.17452411943961613,-0.0357093257557542,0.030063006885410175,0.0
-0.17449166470666702,-0.03567660280187163,0.02998549103563917,0.0
-0.17446403795052026,-0.035691354953212136,0.029784325335541408,0.0
-0.17443185143850462,-0.035649780708525265,0.029933992616414145,0.0
-0.17444043450837546,-0.035688404522944035,0.030156884212122467,0.0
-0.17445438199691557,-0.03572139569776007,0.030068103083145985,0.0
-0.1744482129154459,-0.03572756477922973,0.03000292539631431,0.0
-0.17444258027584317,-0.03571737238375811,0.030044231420067718,0.0
-0.17445223622944786,-0.03570396133708493,0.03006998062968023,0.0
-0.17445143156664747,-0.03571334906975616,0.029941502802551128,0.0
-0.17447905832279423,-0.03570396133708493,0.029935333721081463,0.0
-0.17450561219520713,-0.03572649189549588,0.02992567776747677,0.0
-0.17453136140481965,-0.03579810688473068,0.02995705961669202,0.0
-0.17452546054428345,-0.03572729655829627,0.029979321954169507,0.0
-0.17452841097455155,-0.03574768134923951,0.030012849570852467,0.0
-0.1745088308464087,-0.035717640604691576,0.030167881270394478,0.0
-0.17453055674201925,-0.0357093257557542,0.030011776687118612,0.0
-0.17457320387043998,-0.03573239275603208,0.029847893696772303,0.0
-0.1745678394517707,-0.03566694684826694,0.029840651731568784,0.0
-0.1745707898820388,-0.03570717998828649,0.029899660336930794,0.0
-0.1745914428939155,-0.0357573373028442,0.02998468637283878,0.0
-0.17460592682432255,-0.03574875423297336,0.029804173684617723,0.0
-0.17460002596378635,-0.035738025395634816,0.030041012768866154,0.0
-0.17459063823111512,-0.03569376894161331,0.030002388954447384,0.0
-0.17462067897566305,-0.03573561140723364,0.029987100361239954,0.0
-0.17462979848740082,-0.035743658035237554,0.0299860274775061,0.0
-0.17463113959206814,-0.035732929197899006,0.029874447569185208,0.0
-0.17460565860338909,-0.035733465639765934,0.02984977124330655,0.0
-0.1746174603244615,-0.03571013041855459,0.029953840965490457,0.0
-0.1746660083134184,-0.03573051520949783,0.029950622314288893,0.0
-0.17465045149927752,-0.035748217791106436,0.02986076830157856,0.0
-0.17463409002233624,-0.035714690174423476,0.029821608045292863,0.0
-0.1746196060919292,-0.03573105165136476,0.029856744987576605,0.0
-0.1746166556616611,-0.03572005459309275,0.0298360919756999,0.0
-0.17461477811512685,-0.03573614784910057,0.029806587673018897,0.0
-0.17459358866138322,-0.03572059103495968,0.02980175969621655,0.0
-0.174595197986984,-0.035689209185744426,0.02980685589395236,0.0
-0.17458741957991356,-0.03574419447710448,0.029919508686007106,0.0
-0.17455871994003294,-0.035707984651086884,0.029875520452919063,0.0
-0.17457320387043998,-0.03572541901176202,0.029540780727956385,0.0
-0.1745383351490897,-0.03569591470908102,0.02971968409057666,0.0
-0.17453109318388618,-0.0357366842909675,0.030137840525846546,0.0
-0.17456301147496836,-0.03572810122109666,0.030052009827138165,0.0
-0.17452814275361808,-0.035698596918415655,0.029843870382770348,0.0
-0.17452921563735194,-0.03574473091897141,0.029845211487437667,0.0
-0.17451580459067875,-0.03572971054669744,0.029954377407357385,0.0
-0.17449488335786859,-0.035721932139626995,0.029902074325331967,0.0
-0.1744747667878588,-0.03572085925589314,0.02986505983651398,0.0
-0.17446618371798797,-0.03574419447710448,0.029882762418122582,0.0
-0.17446430617145373,-0.035733465639765934,0.02992111801160789,0.0
-0.17445652776438328,-0.035763506384313866,0.029909048069602023,0.0
-0.17444794469451244,-0.035757605523777665,0.029850844127040404,0.0
-0.17441388063596255,-0.03574607202363873,0.029837701301300684,0.0
-0.17440449290329132,-0.03573051520949783,0.02987391112731828,0.0
-0.1744120030894283,-0.03572649189549588,0.029902610767198894,0.0
-0.17438705854261619,-0.03574607202363873,0.0299291646396118,0.0
-0.17437042884474144,-0.03575009533764068,0.029880080208787945,0.0
-0.17436881951914066,-0.035759751291245374,0.029902878988132358,0.0
-0.17437767080994496,-0.03574419447710448,0.029949817651488502,0.0
-0.17436130933300367,-0.035745267360838336,0.02978459355647487,0.0
-0.17433475546059077,-0.035729174104830515,0.029637876705870238,0.0
-0.1743360965652581,-0.03571951815122582,0.029990319012441518,0.0
-0.17437203817034222,-0.035729174104830515,0.03007829547861761,0.0
-0.1743803530192796,-0.03570825287202035,0.02993935703508342,0.0
-0.17435621313526786,-0.035687599860143644,0.029897514569463084,0.0
-0.17437498860061032,-0.03569376894161331,0.029872033580784035,0.0
-0.17439617805435395,-0.03570717998828649,0.02988624929025761,0.0
-0.174403151798624,-0.03569028206947828,0.0298331415454318,0.0
-0.17441227131036177,-0.03569242783694599,0.029818121173157835,0.0
-0.17439456872875317,-0.0356768710228051,0.029991391896175373,0.0
-0.1744246094733011,-0.03575358220977571,0.02993587016294839,0.0
-0.17443185143850462,-0.03575894662844498,0.02992353200000906,0.0
-0.17444660358984512,-0.03572246858149392,0.029804441905551187,0.0
-0.17445974641558484,-0.035729174104830515,0.02984172461530264,0.0
-0.17449676090440283,-0.03574687668643912,0.029919508686007106,0.0
-0.17450641685800752,-0.03572461434896163,0.0298900043833261,0.0
-0.17449005538106624,-0.035732124535098615,0.02984172461530264,0.0
-0.17446618371798797,-0.035743658035237554,0.0296351944965356,0.0
-0.17448415452053004,-0.03575411865164264,0.029946599000286938,0.0
-0.17452385121868266,-0.03577316233791856,0.03008124590888571,0.0
-0.17452224189308188,-0.035748217791106436,0.029904220092799676,0.0
-0.17449086004386663,-0.03570557066268571,0.02984467504557074,0.0
-0.17450105243933825,-0.0357366842909675,0.029886517511191073,0.0
-0.17450561219520713,-0.03572246858149392,0.02997368931456677,0.0
-0.17450829440454177,-0.03573158809323169,0.029924604883742916,0.0
-0.17447154813665725,-0.03578630516365828,0.02980900166142007,0.0
-0.17448603206706428,-0.035782281849656324,0.029931578628012972,0.0
-0.17452116900934803,-0.03579891154753107,0.029928359976811408,0.0
-0.17451875502094685,-0.03573829361656828,0.029923800220942525,0.0
-0.1744999795556044,-0.03572220036056046,0.029810342766087388,0.0
-0.17450722152080791,-0.03577772209378744,0.029835555533832974,0.0
-0.17452090078841456,-0.03575948307031191,0.02995035409335543,0.0
-0.17454369956775898,-0.03573400208163286,0.02985862253411085,0.0
-0.17454664999802708,-0.03575653264004381,0.029884639964656828,0.0
-0.17454584533522668,-0.03578040430312208,0.029825631359294818,0.0
-0.1745664983471034,-0.03580373952433342,0.029910120953335877,0.0
-0.17455818349816601,-0.03580615351273459,0.02990824340680163,0.0
-0.17453511649788814,-0.03575814196564459,0.029777619812204816,0.0
-0.17453055674201925,-0.03574714490737258,0.029728535381380962,0.0
-0.17453967625375702,-0.03577101657045085,0.029998633861378892,0.0
-0.17453565293975506,-0.03577101657045085,0.030087683211288838,0.0
-0.1745404809165574,-0.035765652151781575,0.02988490818559029,0.0
-0.1745391398118901,-0.035766456814581966,0.029777351591271352,0.0
-0.17455630595163177,-0.035786036942724815,0.029847893696772303,0.0
-0.17456167037030104,-0.03575358220977571,0.030009630919650903,0.0
-0.17456703478897032,-0.035758410186578056,0.029947940104954256,0.0
-0.17455442840509752,-0.035734270302566325,0.029728803602314426,0.0
-0.17454316312589205,-0.035724077907094705,0.029715660776574705,0.0
-0.17456596190523646,-0.035767797919249285,0.029883567080922973,0.0
-0.17456435257963568,-0.03576511570991465,0.029888931499592247,0.0
-0.17454369956775898,-0.035751704663241464,0.02978003380060599,0.0
-0.17455147797482942,-0.03575304576790878,0.029817316510357444,0.0
-0.17456676656803685,-0.035763506384313866,0.029825631359294818,0.0
-0.1745493322073617,-0.03572756477922973,0.029815170742889734,0.0
-0.1745383351490897,-0.0357004744649499,0.029768768521400514,0.0
-0.1745257287652169,-0.03570181556961722,0.02970868703230465,0.0
-0.1745273380908177,-0.03571790882562504,0.02991468070920476,0.0
-0.17451044017200948,-0.035699401581216046,0.029855135661975823,0.0
-0.17449139648573356,-0.035710935081354984,0.029579404542375155,0.0
-0.17449059182293317,-0.03569671937188141,0.02986961959238286,0.0
-0.17451285416041065,-0.035727833000163196,0.02996349691909515,0.0
-0.1745227783349488,-0.035754655093509564,0.029966715570296714,0.0
-0.1745257287652169,-0.0357661885936485,0.02987391112731828,0.0
-0.17452224189308188,-0.035724882569895096,0.02979022619607761,0.0
-0.17454155380029127,-0.03569806047654873,0.02985352633637504,0.0
-0.17458393270777853,-0.03571656772095772,0.02984467504557074,0.0
-0.17457132632390573,-0.035731319872298224,0.029838505964101075,0.0
-0.17455174619576289,-0.035758410186578056,0.029793444847279173,0.0
-0.17453592116068853,-0.035721932139626995,0.029814634301022807,0.0
-0.174554696626031,-0.035749558895773755,0.029609981728790015,0.0
-0.17454691821896054,-0.03576216527964655,0.029845211487437667,0.0
-0.17452841097455155,-0.03575572797724342,0.029986295698439563,0.0
-0.17454557711429322,-0.03577772209378744,0.02990368365093275,0.0
-0.1745479911026944,-0.03576243350058001,0.02991548537200515,0.0
-0.1745412855793578,-0.03575358220977571,0.02977145073073515,0.0
-0.1745479911026944,-0.03580293486153303,0.02980175969621655,0.0
-0.1745442360096259,-0.035729978767630906,0.029901001441598112,0.0
-0.17455120975389596,-0.03575706908191074,0.029909048069602023,0.0
-0.1745619385912345,-0.035788987372992916,0.02987686155758638,0.0
-0.17456596190523646,-0.03573748895376789,0.02980095503341616,0.0
-0.1745560377306983,-0.03571737238375811,0.02981114742888778,0.0
-0.17460217173125406,-0.035745267360838336,0.029914144267337833,0.0
-0.17461424167325992,-0.035775039884452804,0.02990368365093275,0.0
-0.17458527381244585,-0.03575224110510839,0.029832605103564874,0.0
-0.1745568423934987,-0.03575492331444303,0.029854062778241968,0.0
-0.1745479911026944,-0.035734270302566325,0.029902074325331967,0.0
-0.17456918055643803,-0.03576887080298314,0.02980175969621655,0.0
-0.17455845171909948,-0.03578067252405554,0.02976340410273124,0.0
-0.17453377539322082,-0.03576162883777962,0.02977440116100325,0.0
-0.17454557711429322,-0.035830561617679786,0.02978298423087409,0.0
-0.17452546054428345,-0.03577691743098705,0.02987471579011867,0.0
-0.17450453931147328,-0.03573829361656828,0.029734704462850627,0.0
-0.17449220114853395,-0.03574070760496945,0.02957967276330862,0.0
-0.17449676090440283,-0.03577262589605163,0.029947135442153865,0.0
-0.17451044017200948,-0.0357573373028442,0.029928896418678335,0.0
-0.17447288924132456,-0.035721932139626995,0.02980766055675275,0.0
-0.1744482129154459,-0.03574124404683638,0.02974382397458839,0.0
-0.17448334985772965,-0.035825465419943976,0.029685620032026773,0.0
-0.17448630028799775,-0.035806421733668055,0.02989939211599733,0.0
-0.1745117812766768,-0.035844240885286434,0.029893759476394593,0.0
-0.17446725660172183,-0.03577235767511817,0.029808733440486606,0.0
-0.17446350150865333,-0.03582868407114554,0.029801223254349623,0.0
-0.17445089512478054,-0.03581795523380699,0.029867742045848616,0.0
-0.17445143156664747,-0.03580159375686571,0.029835019091966047,0.0
-0.17445304089224825,-0.0357691390239166,0.02977869269593867,0.0
-0.17447235279945764,-0.03578657338459174,0.029758039684061967,0.0
-0.1744911282648001,-0.03580078909406532,0.029829922894230237,0.0
-0.17448174053212887,-0.03575358220977571,0.029811415649821243,0.0
-0.17449488335786859,-0.03578952381485984,0.029701713288034594,0.0
-0.17448630028799775,-0.03575787374471113,0.029773060056335933,0.0
-0.17452036434654764,-0.03579891154753107,0.029804173684617723,0.0
-0.17453967625375702,-0.035791133140460625,0.029603544426386887,0.0
-0.17457320387043998,-0.03579140136139409,0.02962848897319901,0.0
-0.17457025344017188,-0.03576887080298314,0.02985272167357465,0.0
-0.1745833962659116,-0.03576967546578353,0.029801491475283087,0.0
-0.17459680731258478,-0.03579569289632951,0.029973421093633306,0.0
-0.17459788019631864,-0.03578576872179135,0.029906365860267386,0.0
-0.17457856828910925,-0.03576833436111621,0.029727194276713644,0.0
-0.17458902890551434,-0.035796229338196435,0.0299409663606842,0.0
-0.174606195045256,-0.035765652151781575,0.02998388171003839,0.0
-0.17465635235981372,-0.035865430339030065,0.02967945095055711,0.0
-0.17461799676632841,-0.035781745407789396,0.02974731084672342,0.0
-0.17461558277792724,-0.03575921484937845,0.029805514789285042,0.0
-0.17465367015047908,-0.03580749461740191,0.029831800440764483,0.0
-0.1746314078130016,-0.03580588529180113,0.029814634301022807,0.0
-0.1745825916031112,-0.035825465419943976,0.029749993056058056,0.0
-0.17456918055643803,-0.035805080629000736,0.02972773071858057,0.0
-0.17459412510325015,-0.035783086512456715,0.029514495076476938,0.0
-0.17459385688231668,-0.03581339547793811,0.02975830790499543,0.0
-0.174576690742575,-0.035816614129139675,0.029918167581339788,0.0
-0.17457803184724233,-0.03578442761712403,0.02982348559182711,0.0
-0.17460673148712294,-0.03583726714101638,0.02984172461530264,0.0
-0.17461021835925797,-0.0358142001407385,0.029874984011052135,0.0
-0.1745892971264478,-0.0357905966985937,0.029758844346862358,0.0
-0.17457052166110534,-0.03579435179166219,0.029672745427220516,0.0
-0.17459332044044976,-0.035808567501135764,0.029761526556196995,0.0
-0.17456542546336953,-0.03580373952433342,0.02990368365093275,0.0
-0.17459573442885093,-0.03583163450141364,0.02980471012648465,0.0
-0.17460297639405445,-0.03579006025672677,0.02971753832310895,0.0
-0.17461987431286266,-0.035852287513290344,0.029792908405412245,0.0
-0.17460673148712294,-0.03584558198995375,0.02987471579011867,0.0
-0.17459412510325015,-0.035864089234362746,0.029717806544042415,0.0
-0.1745404809165574,-0.03584558198995375,0.02951315397180962,0.0
-0.17456381613776875,-0.035869185432098556,0.029821608045292863,0.0
-0.17457186276577266,-0.03580990860580308,0.030022237303523696,0.0
-0.17454691821896054,-0.035791133140460625,0.029830459336097164,0.0
-0.17452116900934803,-0.03581339547793811,0.029738727776852582,0.0
-0.1745155363697453,-0.03581312725700465,0.02986452339464705,0.0
-0.17453699404442238,-0.035836998920082914,0.02982348559182711,0.0
-0.1745155363697453,-0.03581393191980504,0.029762062998063922,0.0
-0.17452036434654764,-0.03584397266435297,0.029707077706703867,0.0
-0.1745294838582854,-0.03584826419928839,0.029768768521400514,0.0
-0.17452385121868266,-0.035815273024472356,0.029797468161281128,0.0
-0.1745257287652169,-0.035827611187411686,0.029750797718858447,0.0
-0.17450158888120518,-0.03576082417497923,0.029682133159891745,0.0
-0.17455174619576289,-0.035810713268603474,0.029666039903883924,0.0
-0.17455952460283333,-0.0358445091062199,0.029768232079533587,0.0
-0.1745404809165574,-0.03582787940834515,0.029805514789285042,0.0
-0.17451017195107602,-0.0358053488499342,0.029652092415343813,0.0
-0.17450829440454177,-0.03583082983861325,0.02960515375198767,0.0
-0.17451151305574333,-0.03583887646661716,0.029799613928748837,0.0
-0.174517682137213,-0.03585470150169152,0.02975106593979191,0.0
-0.17448925071826585,-0.0358053488499342,0.029675427636555153,0.0
-0.17449971133467093,-0.035828952292079004,0.029549632018760687,0.0
-0.17449488335786859,-0.03583351204794789,0.02944770806404448,0.0
-0.17449354225320127,-0.03588045071130403,0.029763672323664704,0.0
-0.17448039942746155,-0.035831902722347105,0.02978888509141029,0.0
-0.17447449856692535,-0.03579086491952716,0.02969634886936532,0.0
-0.17449086004386663,-0.035801325535932245,0.02966711278761778,0.0
-0.17451044017200948,-0.035858188373826545,0.02971083279977236,0.0
-0.174517682137213,-0.035830561617679786,0.029692325555363365,0.0
-0.17450427109053981,-0.03580481240806727,0.02961990590332817,0.0
-0.174517682137213,-0.03582278321060934,0.029587182949445602,0.0
-0.17454960042829518,-0.03589037488584219,0.02960300798451996,0.0
-0.17451955968374724,-0.035783891175257106,0.02967810984588979,0.0
-0.1745383351490897,-0.035845045548086825,0.029557410425831133,0.0
-0.17454316312589205,-0.03582144210594202,0.02956009263516577,0.0
-0.17454611355616015,-0.0358622116878285,0.029660139043347723,0.0
-0.1745479911026944,-0.03588420580437252,0.029700908625234203,0.0
-0.17455174619576289,-0.03586864899023163,0.029593888472782194,0.0
-0.17453377539322082,-0.03583324382701442,0.02959442491464912,0.0
-0.17455174619576289,-0.03588930200210833,0.02964163179893873,0.0
-0.17456381613776875,-0.03590512703718269,0.029701176846167666,0.0
-0.17452385121868266,-0.03581983278034124,0.029597375344917222,0.0
-0.17452170545121495,-0.035813663698871574,0.029531929437152084,0.0
-0.17454316312589205,-0.03583941290848409,0.0296292936359994,0.0
-0.17456676656803685,-0.03584343622248604,0.029370192214273477,0.0
-0.17458071405657696,-0.03586140702502811,0.029416594435762694,0.0
-0.17456757123083724,-0.035876427397302076,0.029896173464795766,0.0
-0.17459680731258478,-0.035857383711026154,0.029791299079811463,0.0
-0.1746188014291288,-0.03585416505982459,0.02974516507925571,0.0
-0.1746129005685926,-0.03587240408330012,0.02973792311405219,0.0
-0.17459492976605054,-0.035915051211720846,0.029677573404022863,0.0
-0.17458500559151238,-0.035894666420777606,0.02961480970559236,0.0
-0.17457883651004272,-0.035855237943558445,0.029673281869087444,0.0
-0.1745884924636474,-0.03584021757128448,0.02957323546090549,0.0
-0.17458956534738126,-0.03587294052516705,0.029488745866864424,0.0
-0.1746078043708568,-0.035911296118652354,0.02958691472851214,0.0
-0.1746306031502012,-0.03594321440973453,0.029718611206842806,0.0
-0.1745922475567159,-0.035858993036626936,0.029643509345472975,0.0
-0.17458473737057892,-0.03585845659476001,0.029432687691770515,0.0
-0.17457722718444194,-0.03588232825783828,0.02951020354154152,0.0
-0.17459546620791747,-0.03589654396731185,0.029911462058003196,0.0
-0.17459332044044976,-0.03585577438542537,0.029783520672741016,0.0
-0.17461558277792724,-0.03585470150169152,0.02964967842694264,0.0
-0.17462738449899964,-0.03586730788556431,0.0296233927754632,0.0
-0.17465662058074718,-0.0358681125483647,0.029707614148570795,0.0
-0.17465930279008182,-0.035857383711026154,0.0295842325191775,0.0
-0.17465259726674523,-0.03587213586236666,0.02953675741395443,0.0
-0.1746676176390192,-0.035941873305067214,0.029667381008551243,0.0
-0.1746772735926239,-0.03588098715317096,0.02977279183540247,0.0
-0.17472635802344777,-0.035908345688384254,0.029614541484658898,0.0
-0.17474808391905833,-0.03592551182812593,0.02952495569288202,0.0
-0.17472287115131274,-0.035914246548920455,0.029681596718024818,0.0
-0.17474620637252408,-0.03594911527027073,0.029707077706703867,0.0
-0.17474513348879023,-0.0359220249559909,0.029727194276713644,0.0
-0.17472287115131274,-0.03590968679305157,0.029606494856654987,0.0
-0.17477436957053777,-0.03595769834014157,0.029540780727956385,0.0
-0.17476793226813464,-0.0359279258165271,0.029611591054390797,0.0
-0.1747504979074595,-0.03596279453787738,0.029675695857488617,0.0
-0.17474647459345755,-0.035936777107331404,0.02966362591548275,0.0
-0.17470731433717185,-0.03587320874610051,0.02958691472851214,0.0
-0.17470677789530492,-0.035890911327709114,0.029650214868809567,0.0
-0.174698731267301,-0.035915051211720846,0.029696080648431857,0.0
-0.17470731433717185,-0.035923097839724756,0.029623124554529735,0.0
-0.1746885388718294,-0.03593194913052906,0.029520664157946602,0.0
-0.17468317445316012,-0.03590941857211811,0.029561970181700016,0.0
-0.1747054367906376,-0.035918538083855873,0.029631975845334037,0.0
-0.17471697029077654,-0.03593731354919833,0.029670331438819343,0.0
-0.17470865544183917,-0.03593221735146252,0.029597643565850686,0.0
-0.17472206648851235,-0.03592578004905939,0.02959496135651605,0.0
-0.17473091777931665,-0.03594214152600068,0.029626074984797836,0.0
-0.17473815974452017,-0.03592175673505744,0.029386553691214762,0.0
-0.17473547753518553,-0.035911296118652354,0.029393527435484818,0.0
-0.17474566993065715,-0.03593570422359755,0.029847089033971912,0.0
-0.17475881275639688,-0.03586355279249582,0.029818121173157835,0.0
-0.1747993141173499,-0.03597379159614939,0.029786202882075653,0.0
-0.17482184467576084,-0.035998199701094594,0.02961776013586046,0.0
-0.17481728491989196,-0.03593060802586174,0.029555532879296888,0.0
-0.17485885916457883,-0.0359641356425447,0.029641095357071802,0.0
-0.17488460837419134,-0.035915051211720846,0.02965906615961387,0.0
-0.17488407193232441,-0.03593865465386565,0.029593888472782194,0.0
-0.17487200199031855,-0.03590941857211811,0.029655847508412304,0.0
-0.17490284739766687,-0.03591049145585196,0.029623124554529735,0.0
-0.1749690979682324,-0.03593919109573258,0.02964243646173912,0.0
-0.174975803491569,-0.035901908385981125,0.029635462717469065,0.0
-0.17499994337558072,-0.035930339804928275,0.029505643785672636,0.0
-0.17501174509665313,-0.03594965171213766,0.029362682028136494,0.0
-0.17502032816652396,-0.0359611852122766,0.029652897078144204,0.0
-0.17503159344572944,-0.035971109386814755,0.0297969317194142,0.0
-0.1750112086547862,-0.035941873305067214,0.029618028356793925,0.0
-0.17501657307345547,-0.03593489956079716,0.029607835961322305,0.0
-0.1750466138180034,-0.0359582347820085,0.029629830077866327,0.0
-0.17503722608533218,-0.03592685293279325,0.02964163179893873,0.0
-0.17502649724799363,-0.035951529258671906,0.02957323546090549,0.0
-0.1750377625271991,-0.035935436002664085,0.029596838903050295,0.0
-0.17509355248135955,-0.03595126103773844,0.029628757194132473,0.0
-0.17510025800469614,-0.035932485572395985,0.029582354972643256,0.0
-0.17509650291162765,-0.03595689367734118,0.02971083279977236,0.0
-0.17512922586551022,-0.035993103503358784,0.0295724307981051,0.0
-0.17515846194725776,-0.03602207136417286,0.029590133379713703,0.0
-0.17517401876139865,-0.03599015307309068,0.029680792055224427,0.0
-0.17518126072660217,-0.03593650888639794,0.02957162613530471,0.0
-0.17518796624993876,-0.03595930766574235,0.029469702180588503,0.0
-0.17520218195941234,-0.036003295898830404,0.02956304306543387,0.0
-0.17520379128501312,-0.0360003454685623,0.02961829657772739,0.0
-0.17520218195941234,-0.03594723772373649,0.02936590067933806,0.0
-0.1752290040527587,-0.03599417638709264,0.029536489193020966,0.0
-0.17526065412290742,-0.036021534922305934,0.029856744987576605,0.0
-0.17524590197156692,-0.03597808313108481,0.029689643346028728,0.0
-0.17521773877355323,-0.03594831060747034,0.029549363797827223,0.0
-0.1752003044128781,-0.035935436002664085,0.029562774844500407,0.0
-0.17522659006435753,-0.035963867421611236,0.029587182949445602,0.0
-0.17526279989037513,-0.0360218031432394,0.029607835961322305,0.0
-0.1752386600063634,-0.0359944446080261,0.029607567740388842,0.0
-0.17520566883154737,-0.03597379159614939,0.029567066379435826,0.0
-0.1752424150994319,-0.03597969245668559,0.02956223840263348,0.0
-0.17524912062276848,-0.03596547674721202,0.029629830077866327,0.0
-0.17522659006435753,-0.03596574496814548,0.02957162613530471,0.0
-0.17521371545955128,-0.03591746520012202,0.029490891634332134,0.0
-0.17518877091273916,-0.03592578004905939,0.029618028356793925,0.0
-0.17519493999420882,-0.03597808313108481,0.02961615081025968,0.0
-0.1751935988895415,-0.03596064877040967,0.029469702180588503,0.0
-0.17518447937780374,-0.03596279453787738,0.02970224972990152,0.0
-0.1752032548431462,-0.03600436878256426,0.029615614368392752,0.0
-0.17520647349434776,-0.03597674202641749,0.029673550090020907,0.0
-0.1751648992496609,-0.03596467208441163,0.029714856113774314,0.0
-0.17518233361033603,-0.03601241541056817,0.029540780727956385,0.0
-0.17518421115687027,-0.035966013189078945,0.029608640624122697,0.0
-0.17520405950594659,-0.0359700365030809,0.02971458789284085,0.0
-0.17522203030848865,-0.03600088191042923,0.029678646287756717,0.0
-0.17520352306407966,-0.03600302767789694,0.0296263432057313,0.0
-0.17516731323806206,-0.03597969245668559,0.029588792275046384,0.0
-0.17515175642392117,-0.035978351352018274,0.02962714786853169,0.0
-0.17517026366833016,-0.03601241541056817,0.029652092415343813,0.0
-0.17515685262165698,-0.03595984410760928,0.029624465659197054,0.0
-0.17518018784286832,-0.03596064877040967,0.02954104894888985,0.0
-0.17518635692433798,-0.03599283528242532,0.0296351944965356,0.0
-0.17518528404060413,-0.03599363994522571,0.029925409546543307,0.0
-0.1752016455175454,-0.03598505687535487,0.029788616870476826,0.0
-0.17518796624993876,-0.035991494177758,0.02941552155202884,0.0
-0.1751691907845963,-0.03596762251467973,0.029601935100786105,0.0
-0.17519762220354346,-0.03597084116588129,0.029500547587936826,0.0
-0.17519493999420882,-0.0359788877938852,0.029425177505633532,0.0
-0.17519708576167653,-0.035979960677619056,0.029716197218441633,0.0
-0.17519842686634385,-0.03597808313108481,0.029595229577449512,0.0
-0.17521773877355323,-0.03598344754975409,0.02967220898535359,0.0
-0.17522256675035558,-0.03596654963094587,0.02969339843909722,0.0
-0.1751965493198096,-0.03597432803801632,0.029454413587381073,0.0
-0.1751876980290053,-0.036033336643378336,0.029651287752543422,0.0
-0.17519493999420882,-0.035996053933626884,0.02975911256779582,0.0
-0.17519681754074307,-0.03598934841029029,0.029699835741500348,0.0
-0.17515846194725776,-0.035996858596427275,0.029553923553696106,0.0
-0.1751270800980425,-0.03596789073561319,0.029551509565294933,0.0
-0.17515873016819122,-0.03600973320123353,0.02967945095055711,0.0
-0.17517321409859826,-0.03601456117803588,0.029651019531609958,0.0
-0.17516007127285854,-0.035996053933626884,0.029601130437985713,0.0
-0.1751536339704554,-0.036007855654699286,0.02947962635512666,0.0
-0.17515202464485463,-0.03602502179444096,0.02962205167079588,0.0
-0.17517831029633407,-0.03604004216671493,0.029753479928193084,0.0
-0.17517857851726754,-0.03601670694550359,0.02945709579671571,0.0
-0.17519735398261,-0.036027435782842135,0.029431078366169733,0.0
-0.17519091668020687,-0.036032531980577945,0.029758039684061967,0.0
-0.17519762220354346,-0.036041383271382246,0.029745433300189174,0.0
-0.17517348231953173,-0.036048625236585766,0.02968401070642599,0.0
-0.17512761653990944,-0.036026094678174816,0.02959147448438102,0.0
-0.17513271273764525,-0.03599846792202806,0.02955794686769806,0.0
-0.1751388818191149,-0.0360159022827032,0.029641900019872193,0.0
-0.17514719666805229,-0.03605533075992236,0.029590401600647166,0.0
-0.1751359313888468,-0.036090735923139564,0.02947157972712275,0.0
-0.17512010635377245,-0.03603011799217677,0.029518518390478893,0.0
-0.17512466610964134,-0.03605050278312001,0.029719147648709733,0.0
-0.17511742414443782,-0.036036823515513364,0.02972263452084476,0.0
-0.17511796058630474,-0.03603011799217677,0.029484990773795933,0.0
-0.1751152783769701,-0.036007855654699286,0.02950966709967459,0.0
-0.17514612378431843,-0.036028240445642526,0.029673550090020907,0.0
-0.17513190807484486,-0.036034677748045654,0.029700908625234203,0.0
-0.17510133088843,-0.035975400921750174,0.029660943706148114,0.0
-0.17508550585335564,-0.03600946498030007,0.029605690193854596,0.0
-0.17510776819083312,-0.03605345321338811,0.029652092415343813,0.0
-0.175112327946702,-0.0360365552945799,0.029667381008551243,0.0
-0.17508899272549067,-0.03600356411976387,0.029596034240249904,0.0
-0.1750525146785396,-0.03601187896870124,0.029541317169823313,0.0
-0.1750407129574672,-0.035999809026695376,0.02964672799667454,0.0
-0.17503829896906603,-0.03598183822415331,0.02962124700799549,0.0
-0.17500879466638503,-0.03598908018935683,0.029369119330539623,0.0
-0.17498921453824218,-0.036033336643378336,0.029542926495424095,0.0
-0.17502435148052592,-0.03602207136417286,0.029738459555919118,0.0
-0.1750777274462852,-0.036025290015374425,0.029687229357627555,0.0
-0.17506377995774508,-0.03603521418991258,0.029599789333318395,0.0
-0.17504339516680184,-0.03602368068977364,0.029553655332762642,0.0
-0.1750385671899995,-0.03599498104989303,0.02969768997403264,0.0
-0.175082823644021,-0.03606069517859163,0.02970144506710113,0.0
-0.17506538928334586,-0.03602904510844292,0.02966657634575085,0.0
-0.175023815038659,-0.035980765340419454,0.02968535181109331,0.0
-0.17499887049184687,-0.03598344754975409,0.029657993275880014,0.0
-0.17501254975945352,-0.036008392096566214,0.029532734099952475,0.0
-0.1750082582245181,-0.03604326081791649,0.029542926495424095,0.0
-0.17497017085196626,-0.03600356411976387,0.02960005755425186,0.0
-0.17497017085196626,-0.03598049711948599,0.029613468600925043,0.0
-0.17497929036370402,-0.03595957588667582,0.029584500740110965,0.0
-0.17499028742197603,-0.03598425221255448,0.02961480970559236,0.0
-0.17497768103810324,-0.03593892287479911,0.02948177212259437,0.0
-0.1749513953866238,-0.03596279453787738,0.029298040783171747,0.0
-0.17498921453824218,-0.03598425221255448,0.029763940544598168,0.0
-0.17499323785224413,-0.03600517344536465,0.029808465219553142,0.0
-0.17497982680557095,-0.035966817851879336,0.029663357694549287,0.0
-0.17496292888676274,-0.0359493834912042,0.029595497798382976,0.0
-0.17497473060783514,-0.036004100561630795,0.029609981728790015,0.0
-0.1749771445962363,-0.035975400921750174,0.029699031078699957,0.0
-0.17498626410797408,-0.03592926692119442,0.029597107123983758,0.0
-0.17500933110825195,-0.03601322007336856,0.02945924156418342,0.0
-0.17497553527063553,-0.035911296118652354,0.02967167254348666,0.0
-0.17497151195663357,-0.03591451476985392,0.02960300798451996,0.0
-0.17500396668958268,-0.035991762398691465,0.0295273696812832,0.0
-0.17498706877077447,-0.03599954080576191,0.02959281558904834,0.0
-0.17496561109609737,-0.03596869539841358,0.029600593996118786,0.0
-0.17499484717784491,-0.03593275379332945,0.029511276425275373,0.0
-0.17500369846864922,-0.03594106864226682,0.029370192214273477,0.0
-0.17499699294531262,-0.035974864479883246,0.0297371184512518,0.0
-0.17497687637530285,-0.03595340680520615,0.02975830790499543,0.0
-0.17501389086412084,-0.03600222301509655,0.029569212146903535,0.0
-0.17503052056199558,-0.03600731921283236,0.029471847948056212,0.0
-0.1750179141781228,-0.03599551749175996,0.029529247227817447,0.0
-0.17503212988759637,-0.03598022889855253,0.029606494856654987,0.0
-0.1750356167597314,-0.035962258096010453,0.02967301364815398,0.0
-0.17502140105025782,-0.035965208526278554,0.029642168240805657,0.0
-0.17497768103810324,-0.035942677967867605,0.029612663938124652,0.0
-0.17497365772410128,-0.0359552843517404,0.029596302461183367,0.0
-0.17497553527063553,-0.03598988485215722,0.029645923333874148,0.0
-0.17498492300330676,-0.03601187896870124,0.02963143940346711,0.0
-0.1749581009099604,-0.03598344754975409,0.029386821912148225,0.0
-0.1749291330491463,-0.035981570003219845,0.029376093074809678,0.0
-0.17493396102594866,-0.03601241541056817,0.029804978347418114,0.0
-0.17490928470007,-0.03597674202641749,0.02979022619607761,0.0
-0.1748966783161972,-0.0360003454685623,0.029607299519455378,0.0
-0.17488970457192715,-0.035976205584550565,0.029548022693159905,0.0
-0.17487870751365514,-0.03599632215456035,0.02961024994972348,0.0
-0.17490445672326765,-0.03601777982923744,0.029683742485492527,0.0
-0.17492215930487626,-0.035999004363894985,0.029526028576615883,0.0
-0.17489560543246335,-0.035986666200955655,0.02949142807619906,0.0
-0.17489185033939486,-0.03597137760774822,0.029558215088631525,0.0
-0.174879780397389,-0.03600249123603001,0.029672745427220516,0.0
-0.17489104567659447,-0.03601992559670515,0.029605421972921132,0.0
-0.17487361131591933,-0.03598344754975409,0.029438320331373252,0.0
-0.1748864859207256,-0.03601187896870124,0.02951395863461001,0.0
-0.17486449180418157,-0.03598639798002219,0.02972182985804437,0.0
-0.17485054431564145,-0.03597647380548403,0.02966577168295046,0.0
-0.17484303412950447,-0.03598210644508677,0.02957913632144169,0.0
-0.17484303412950447,-0.035999004363894985,0.029574308344639345,0.0
-0.17484088836203676,-0.03602341246884018,0.029654238182811522,0.0
-0.17486744223444967,-0.036039773945781464,0.02962500210106398,0.0
-0.17489211856032832,-0.03602126670137247,0.029454413587381073,0.0
-0.17486824689725006,-0.036030386213110235,0.029583696077310574,0.0
-0.1748384743736356,-0.03602716756190867,0.029695007764698002,0.0
-0.17484598455977257,-0.036070351132196324,0.02956304306543387,0.0
-0.17483069596656514,-0.03598934841029029,0.02951610440207772,0.0
-0.17484035192016983,-0.03603870106204761,0.02980256435901694,0.0
-0.17485376296684302,-0.03606659603912783,0.029745433300189174,0.0
-0.17482989130376475,-0.03602931332937638,0.029634121612801746,0.0
-0.17482479510602894,-0.03604808879471884,0.02961615081025968,0.0
-0.17480709252442034,-0.03602099848043901,0.029538634960488676,0.0
-0.17484008369923637,-0.03604728413191845,0.02961105461252387,0.0
-0.17485134897844185,-0.03602341246884018,0.029706809485770404,0.0
-0.17482694087349665,-0.036011342526834314,0.02965557928747884,0.0
-0.17480548319881956,-0.03600946498030007,0.029585037181977893,0.0
-0.1748095065128215,-0.036035482410846045,0.029582086751709792,0.0
-0.17482264933856123,-0.03606364560885973,0.02966872211321856,0.0
-0.17481728491989196,-0.0360816164114018,0.029579940984242083,0.0
-0.17478053865200743,-0.03606149984139202,0.029537293855821357,0.0
-0.17478402552414246,-0.036056671864589676,0.029544535821024877,0.0
-0.17482935486189782,-0.03608885837660532,0.029656652171212695,0.0
-0.17482989130376475,-0.036069814690329396,0.02977279183540247,0.0
-0.17479019460561213,-0.03601563406176973,0.02956518883290158,0.0
-0.1747563987679957,-0.036028240445642526,0.029613736821858506,0.0
-0.17477383312867084,-0.03609905077207694,0.029752675265392693,0.0
-0.17477839288453972,-0.0360727651205975,0.029809538103286997,0.0
-0.17480119166388414,-0.03603870106204761,0.02963734026400331,0.0
-0.17480601964068648,-0.036063913829793195,0.02956599349570197,0.0
-0.17479126748934598,-0.036047820573785375,0.029676500520289008,0.0
-0.17480870185002112,-0.03604513836445074,0.029693130218163756,0.0
-0.17480494675695263,-0.03603306842244487,0.029574844786506273,0.0
-0.17476176318666498,-0.03601053786403392,0.02950081580887029,0.0
-0.17476203140759844,-0.03604513836445074,0.029692861997230292,0.0
-0.17476980981466889,-0.036009196759366605,0.029846552592104985,0.0
-0.17477732000080587,-0.03604942989938616,0.029658261496813478,0.0
-0.17475693520986263,-0.03604594302725113,0.02951610440207772,0.0
-0.17474942502372565,-0.03605452609712197,0.029607031298521914,0.0
-0.17475452122146146,-0.03606445027166012,0.029540780727956385,0.0
-0.17472957667464933,-0.03602877688750945,0.029424104621899677,0.0
-0.17472206648851235,-0.036063109166992804,0.029590938042514094,0.0
-0.1747075825581053,-0.03604326081791649,0.02967515941562169,0.0
-0.1747424512794556,-0.03603575063177951,0.029664698799216606,0.0
-0.17473842796545364,-0.036055867201789285,0.02976689097486627,0.0
-0.17470194991850257,-0.03605050278312001,0.029738727776852582,0.0
-0.17468585666249475,-0.03607464266713174,0.029669794996952416,0.0
-0.17470382746503682,-0.036095832120875374,0.02969768997403264,0.0
-0.17470490034877068,-0.036102537644211966,0.02966416235734968,0.0
-0.17468746598809554,-0.03604111505044878,0.029585841844778284,0.0
-0.17471267875584112,-0.03603226375964448,0.02962714786853169,0.0
-0.17472877201184894,-0.03607222867873057,0.0296802556133575,0.0
-0.17475237545399375,-0.03610361052794582,0.029644314008273366,0.0
-0.17474486526785676,-0.03607517910899867,0.029384676144680516,0.0
-0.17473252710491743,-0.03608188463233526,0.029612663938124652,0.0
-0.1747327953258509,-0.03609395457434113,0.02978083846340638,0.0
-0.17473762330265324,-0.036085639725403754,0.029717806544042415,0.0
-0.17475747165172956,-0.03611004783034895,0.029682937822692136,0.0
-0.17473815974452017,-0.036100391876744256,0.029604349089187278,0.0
-0.17472045716291157,-0.0360816164114018,0.029626074984797836,0.0
-0.17472582158158084,-0.036090199481272636,0.02970788236950426,0.0
-0.17472716268624816,-0.036041383271382246,0.029640022473337947,0.0
-0.17473467287238514,-0.0360786659811337,0.029616687252126607,0.0
-0.17474996146559257,-0.03607356978339789,0.029600325775185322,0.0
-0.17477249202400352,-0.03608671260913761,0.02966496702015007,0.0
-0.17475988564013073,-0.0360424561551161,0.02980980632422046,0.0
-0.1747778564426728,-0.03609475923714152,0.02966416235734968,0.0
-0.1747711509193362,-0.03609905077207694,0.029626879647598227,0.0
-0.1747985094545495,-0.03609797788834308,0.02972048875337705,0.0
-0.1748095065128215,-0.0360934181324742,0.029674891194688226,0.0
-0.1747993141173499,-0.03606123162045856,0.029607031298521914,0.0
-0.17481487093149078,-0.03605398965525504,0.02962205167079588,0.0
-0.17483498750150056,-0.036090199481272636,0.029645923333874148,0.0
-0.17484517989697218,-0.036036823515513364,0.029508594215940737,0.0
-0.17482613621069626,-0.03602341246884018,0.029466215308453475,0.0
-0.17480011878015028,-0.0360454065853842,0.029812488533555098,0.0
-0.17482345400136162,-0.03606284094605934,0.029733363358183308,0.0
-0.17485081253657492,-0.036089394818472245,0.029656652171212695,0.0
-0.17483364639683324,-0.03603199553871102,0.029656115729345768,0.0
-0.1748229175594947,-0.03600651455003197,0.029543731158224486,0.0
-0.17484598455977257,-0.03604916167845269,0.029664430578283142,0.0
-0.17486958800191738,-0.03607356978339789,0.02971673366030856,0.0
-0.17487280665311894,-0.036090735923139564,0.029600593996118786,0.0
-0.17485429940870995,-0.036053721434321576,0.029569212146903535,0.0
-0.17486315069951425,-0.03604942989938616,0.029624465659197054,0.0
-0.17486851511818352,-0.03607142401593018,0.02965477462467845,0.0
-0.1748516171993753,-0.036044870143517274,0.029624733880130517,0.0
-0.17483632860616788,-0.036047015910984984,0.029482040343527832,0.0
-0.17489050923472754,-0.03606337738792627,0.029553923553696106,0.0
-0.17494415342142028,-0.03609985543487733,0.029768768521400514,0.0
-0.17494898139822262,-0.03608537150447029,0.02963063474066672,0.0
-0.1748966783161972,-0.03605613542272275,0.029476407703925095,0.0
-0.1748738795368528,-0.03603575063177951,0.029445830517510235,0.0
-0.17489050923472754,-0.03607222867873057,0.029544267600091413,0.0
-0.17491277157220503,-0.03607464266713174,0.029810879207954315,0.0
-0.17490472494420112,-0.036098782551143474,0.029714051450973923,0.0
-0.17492054997927547,-0.036063913829793195,0.029649141985075712,0.0
-0.17495166360755726,-0.036122922435155205,0.029766622753932805,0.0
-0.17497526704970207,-0.03612640930729023,0.029738995997786045,0.0
-0.17495702802622654,-0.0360454065853842,0.029477748808592413,0.0
-0.1749446898632872,-0.03606659603912783,0.029486600099396715,0.0
-0.1749350339096825,-0.03613579703996146,0.029665235241083533,0.0
-0.1749623924448958,-0.03611138893501627,0.02970359083456884,0.0
-0.17492001353740855,-0.03603306842244487,0.029602203321719568,0.0
-0.17493798433995061,-0.03608590794633722,0.029505375564739172,0.0
-0.17494576274702106,-0.03608081174860141,0.029610518170656942,0.0
-0.17492859660727939,-0.03600758743376582,0.029691520892562974,0.0
-0.17491679488620698,-0.03600597810816504,0.029488209424997497,0.0
-0.174898287641798,-0.03605559898085582,0.02941042535429303,0.0
-0.17490177451393302,-0.03608027530673448,0.029564920611968117,0.0
-0.17494147121208564,-0.03613713814462878,0.029931846848946436,0.0
-0.17493422924688212,-0.03611246181875012,0.02979773638221459,0.0
-0.17491330801407196,-0.03606498671352705,0.029662284810815433,0.0
-0.17492350040954358,-0.03610629273728046,0.02967810984588979,0.0
-0.17494120299115218,-0.036087517271938,0.029779765579672525,0.0
-0.17495300471222458,-0.03607732487646638,0.029707077706703867,0.0
-0.17493610679341637,-0.03606284094605934,0.029648605543208785,0.0
-0.17494898139822262,-0.036087517271938,0.02961534614745929,0.0
-0.17497070729383318,-0.036112730039683585,0.029681328497091354,0.0
-0.17497553527063553,-0.036082152853268726,0.02971163746257275,0.0
-0.17497955858463748,-0.03608590794633722,0.02956518883290158,0.0
-0.1749551504796923,-0.0360904677022061,0.02965987082241426,0.0
-0.17494790851448877,-0.03607652021366599,0.02975616213752772,0.0
-0.17490821181633615,-0.03603199553871102,0.02966201658988197,0.0
-0.17490606604886844,-0.03609475923714152,0.029546681588492586,0.0
-0.17490365206046726,-0.03609824610927655,0.02953890318142214,0.0
-0.17488997279286062,-0.03608993126033917,0.02956223840263348,0.0
-0.1749033838395338,-0.036107633841947775,0.02980685589395236,0.0
-0.17489855586273145,-0.03609824610927655,0.029683474264559064,0.0
-0.17489211856032832,-0.03606552315539398,0.02954614514662566,0.0
-0.17486851511818352,-0.03608912659753878,0.02974516507925571,0.0
-0.17489426432779603,-0.036098782551143474,0.029718342985909342,0.0
-0.17487280665311894,-0.036097441446476156,0.029556873983964206,0.0
-0.17485295830404263,-0.03610280586514543,0.029672745427220516,0.0
-0.1748457163388391,-0.03610307408607889,0.029771718951668615,0.0
-0.17483418283870017,-0.03610146476047811,0.02971673366030856,0.0
-0.17480789718722073,-0.036100391876744256,0.029660943706148114,0.0
-0.17477651533800548,-0.03606257272512588,0.029678378066823254,0.0
-0.1747867077334771,-0.0361296279584918,0.029707077706703867,0.0
-0.1748339146177667,-0.03613982035396342,0.02978003380060599,0.0
-0.17482157645482738,-0.03606284094605934,0.02972102519524398,0.0
-0.1747985094545495,-0.036049966341253084,0.029677036962155935,0.0
-0.1747977047917491,-0.03606284094605934,0.029708955253238113,0.0
-0.17482613621069626,-0.036099587213943865,0.029659602601480796,0.0
-0.1748213082338939,-0.0361081702838147,0.029752675265392693,0.0
-0.17480387387321877,-0.03607893420206716,0.029620978787062026,0.0
-0.17482694087349665,-0.03612158133048789,0.029474798378324313,0.0
-0.1748709291065847,-0.036132310167826434,0.02985567210384275,0.0
-0.17487763462992129,-0.03609770966740962,0.02981275675448856,0.0
-0.17486315069951425,-0.03612909151662487,0.029640022473337947,0.0
-0.17484544811790564,-0.03615537716810431,0.029649946647876103,0.0
-0.17485215364124224,-0.036149208086634646,0.029758039684061967,0.0
-0.17487066088565123,-0.03613767458649571,0.029783252451807553,0.0
-0.17485644517617766,-0.03614598943543308,0.029703322613635376,0.0
-0.17482640443162972,-0.0361022694232785,0.029639754252404484,0.0
-0.1748296230828313,-0.03613365127249375,0.029688570462294873,0.0
-0.17483820615270212,-0.03616476490077554,0.02971592899750817,0.0
-0.17482399044322855,-0.036125068202622915,0.029600593996118786,0.0
-0.17480199632668453,-0.0361414296795642,0.029547218030359514,0.0
-0.17480467853601916,-0.03617012931944481,0.029750529497924984,0.0
-0.17481379804775693,-0.03617656662184794,0.029872033580784035,0.0
-0.17480548319881956,-0.036156450051838165,0.029762867660864313,0.0
-0.17478509840787632,-0.03617361619157984,0.029546681588492586,0.0
-0.1747800022101405,-0.036155645389037774,0.02963948603147102,0.0
-0.1747955590242814,-0.03617629840091448,0.02973068114884867,0.0
-0.17478107509387436,-0.03615108563316889,0.029743287532721464,0.0
-0.17477463779147123,-0.03611755801648593,0.029663089473615824,0.0
-0.17478912172187827,-0.03611514402808476,0.029478017029525877,0.0
-0.17480843362908766,-0.0360934181324742,0.029539439623289067,0.0
-0.17484705744350643,-0.036149208086634646,0.029774132940069788,0.0
-0.17481433448962386,-0.03610441519074621,0.029694739543764538,0.0
-0.17481594381522464,-0.036133919493427216,0.02960971350785655,0.0
-0.17484330235043793,-0.03616610600544286,0.029777619812204816,0.0
-0.17484813032724028,-0.036110584272215876,0.02979612705661381,0.0
-0.17484786210630682,-0.03614169790049766,0.029666039903883924,0.0
-0.17485966382737922,-0.036181126377716824,0.029635462717469065,0.0
-0.1748309641874986,-0.03615189029596928,0.029704127276435767,0.0
-0.17485054431564145,-0.03618568613358571,0.029677573404022863,0.0
-0.17486261425764732,-0.036201511168660064,0.02964672799667454,0.0
-0.1748376697108352,-0.03615296317970314,0.02959576601931644,0.0
-0.17483740148990173,-0.03616717888917671,0.02964377756640644,0.0
-0.17484035192016983,-0.03613418771436068,0.029684815369226382,0.0
-0.1748347192805671,-0.03614062501676381,0.02950376623913839,0.0
-0.1748183578036258,-0.036179785273049506,0.02966657634575085,0.0
-0.1748154073733577,-0.03615671827277163,0.029777351591271352,0.0
-0.17481943068735967,-0.03618970944758766,0.029772255393535542,0.0
-0.1748296230828313,-0.036200974726793136,0.029581013867975937,0.0
-0.17480038700108375,-0.036173079749712914,0.029480162796993586,0.0
-0.1748073607453538,-0.036178980610249115,0.029820535161559008,0.0
-0.1748183578036258,-0.03616315557517476,0.029810610987020852,0.0
-0.1748065560825534,-0.03621277644786554,0.029755625695660794,0.0
-0.17479448614054754,-0.03622243240147023,0.029682937822692136,0.0
-0.17478938994281173,-0.03623047902947414,0.029677841624956326,0.0
-0.17482399044322855,-0.03622430994800448,0.029776815149404424,0.0
-0.17481594381522464,-0.03617790772651526,0.029778156254071743,0.0
-0.17479207215214637,-0.03618005349398297,0.029559824414232307,0.0
-0.1747859030706767,-0.036199365401192354,0.029510471762474982,0.0
-0.1747786611054732,-0.03622940614574029,0.029719415869643197,0.0
-0.17475103434932643,-0.03616127802864051,0.029775474044737106,0.0
-0.17476685938440079,-0.036211167122264756,0.02965262885721074,0.0
-0.17476256784946537,-0.036164496679842076,0.029684815369226382,0.0
-0.1748006552220172,-0.03619024588945459,0.029733095137249844,0.0
-0.17482264933856123,-0.03620177938959353,0.02974650618392303,0.0
-0.17478241619854168,-0.03615993692397319,0.029702517950834985,0.0
-0.17480280098948492,-0.03618810012198688,0.029607299519455378,0.0
-0.17485429940870995,-0.03618514969171878,0.029660943706148114,0.0
-0.17489292322312872,-0.03615510894717085,0.02973202225351599,0.0
-0.1748945325487295,-0.036166642447309785,0.02973068114884867,0.0
-0.17485885916457883,-0.03616020514490666,0.029625270321997445,0.0
-0.1748553722924438,-0.03616342379610822,0.029606226635721523,0.0
-0.1748789757345886,-0.03618300392425107,0.029580209205175546,0.0
-0.17485483585057687,-0.036162350912374366,0.02972478028831247,0.0
-0.17483418283870017,-0.0361591322611728,0.02984843013863923,0.0
-0.17483364639683324,-0.03617227508691252,0.02977869269593867,0.0
-0.17483954725736944,-0.03618380858705146,0.029795054172879955,0.0
-0.17480709252442034,-0.036139015691163026,0.02978298423087409,0.0
-0.1747918039312129,-0.03613713814462878,0.029717270102175487,0.0
-0.17479099926841252,-0.03614974452850157,0.029706273043903476,0.0
-0.17479663190801525,-0.03617227508691252,0.029684815369226382,0.0
-0.17477732000080587,-0.03619024588945459,0.02969554420656493,0.0
-0.17476122674479805,-0.036192928098789226,0.029658797938680405,0.0
-0.17479368147774715,-0.03615510894717085,0.029674086531887835,0.0
-0.17479985055921682,-0.03617656662184794,0.02973577734658448,0.0
-0.1748073607453538,-0.036166642447309785,0.029721293416177443,0.0
-0.17482023535016006,-0.036167447110110176,0.029582354972643256,0.0
-0.17481352982682347,-0.0361561818309047,0.02965262885721074,0.0
-0.17480923829188805,-0.036166642447309785,0.029728267160447498,0.0
-0.1748414248039037,-0.03623611166907688,0.029747042625789956,0.0
-0.17482157645482738,-0.03614598943543308,0.029815170742889734,0.0
-0.17480789718722073,-0.03615001274943504,0.029693934880964147,0.0
-0.1748036056522853,-0.036160741586773584,0.029693934880964147,0.0
-0.1747778564426728,-0.0361982925174585,0.029827777126762527,0.0
-0.17475157079119336,-0.03619400098252308,0.029714051450973923,0.0
-0.1747260898025143,-0.03614196612143113,0.029493305622733307,0.0
-0.17475103434932643,-0.0361805899358499,0.029824022033694036,0.0
-0.1747673958262677,-0.03614572121449962,0.02992701887214409,0.0
-0.17477651533800548,-0.03616342379610822,0.029737386672185263,0.0
-0.17476042208199766,-0.03614491655169923,0.02960086221705225,0.0
-0.17475881275639688,-0.0361473305401004,0.029759917230596213,0.0
-0.17478831705907788,-0.03619963362212582,0.029982808826304535,0.0
-0.1747904628265456,-0.03617844416838219,0.029826972463962136,0.0
-0.17478107509387436,-0.036176834842781405,0.02954614514662566,0.0
-0.17474111017478827,-0.036168788214777495,0.02966148014801504,0.0
-0.17473708686078632,-0.036115680469951686,0.02977279183540247,0.0
-0.17474915680279218,-0.03612989617942526,0.02973631378845141,0.0
-0.1747268944653147,-0.03614679409823347,0.029710564578838895,0.0
-0.17472072538384503,-0.036149208086634646,0.029699567520566884,0.0
-0.17473762330265324,-0.03616932465664442,0.029744092195521855,0.0
-0.1747445970469233,-0.036130164400358725,0.02972048875337705,0.0
-0.17474862036092526,-0.03617147042411213,0.029590133379713703,0.0
-0.1747158974070427,-0.0361296279584918,0.029709223474171577,0.0
-0.17473145422118358,-0.036148403423834255,0.029777619812204816,0.0
-0.17474432882598984,-0.03616047336584012,0.02977949735873906,0.0
-0.174735745756119,-0.03611970378395364,0.02963358517093482,0.0
-0.17475371655866107,-0.0361414296795642,0.029423031738165822,0.0
-0.17475773987266302,-0.036149208086634646,0.02971539255564124,0.0
-0.17478268441947514,-0.03616342379610822,0.029902878988132358,0.0
-0.1747416466166552,-0.03609180880687342,0.029780570242472916,0.0
-0.17472823556998202,-0.036119167342086714,0.029648069101341858,0.0
-0.1747555941051953,-0.036125872865423306,0.02963948603147102,0.0
-0.1747644453959996,-0.036163692017041685,0.02976930496326744,0.0
-0.17479314503588023,-0.036145452993566154,0.029789421533277217,0.0
-0.17479582724521486,-0.03610441519074621,0.02961400504279197,0.0
-0.17481084761748883,-0.03618810012198688,0.02958932871691331,0.0
-0.1747918039312129,-0.036123727097955596,0.0297998821496823,0.0
-0.1747963636870818,-0.03614813520290079,0.029848966580506158,0.0
-0.17477973398920704,-0.03616771533104364,0.02975401637006001,0.0
-0.17477463779147123,-0.036191318773188444,0.02972558495111286,0.0
-0.17479609546614833,-0.03619185521505537,0.029645923333874148,0.0
-0.17481594381522464,-0.036168788214777495,0.02970224972990152,0.0
-0.17479314503588023,-0.03615376784250353,0.029831800440764483,0.0
-0.17481004295468844,-0.0361591322611728,0.02965852971774694,0.0
-0.17484088836203676,-0.036198024296525036,0.029708418811371186,0.0
-0.17483901081550252,-0.03617120220317867,0.029703859055502303,0.0
-0.17484169302483715,-0.03617844416838219,0.029610518170656942,0.0
-0.17483364639683324,-0.03617066576131174,0.029571357914371245,0.0
-0.17482694087349665,-0.03615591360997124,0.02963063474066672,0.0
-0.17484169302483715,-0.036226455715472186,0.029667649229484706,0.0
-0.17484759388537335,-0.03623477056440956,0.029635462717469065,0.0
-0.17483230529216592,-0.03623101547134107,0.029581550309842865,0.0
-0.1748006552220172,-0.036199365401192354,0.02965262885721074,0.0
-0.17481192050122268,-0.03618863656385381,0.02967945095055711,0.0
-0.17481943068735967,-0.03619185521505537,0.029590401600647166,0.0
-0.17479073104747905,-0.03616261913330783,0.029501888692604145,0.0
-0.1747875123962775,-0.03620285227332738,0.029517177285811574,0.0
-0.17481487093149078,-0.036263470204290174,0.02966416235734968,0.0
-0.1747918039312129,-0.03623852565747805,0.029646459775741076,0.0
-0.1747845619660094,-0.036228601482939896,0.029555532879296888,0.0
-0.1747534483377276,-0.036184076807984925,0.02965477462467845,0.0
-0.1747349410933186,-0.03615832759837241,0.029582891414510183,0.0
-0.1747395008491875,-0.03620204761052699,0.029424909284700068,0.0
-0.1747201889419781,-0.036216799761867494,0.029667649229484706,0.0
-0.174724748697847,-0.036202315831460455,0.029783520672741016,0.0
-0.17475318011679414,-0.03620848491293012,0.02964538689200722,0.0
-0.17475210723306028,-0.03616181447050744,0.02968106027615789,0.0
-0.17474432882598984,-0.03613794280742917,0.02962553854293091,0.0
-0.1747563987679957,-0.036178175947448724,0.029607299519455378,0.0
-0.1747593491982638,-0.03619614674999079,0.02963653560120292,0.0
-0.17477088269840274,-0.03617334797064638,0.029621783449862417,0.0
-0.17477544245427162,-0.03619480564532347,0.02955204600716186,0.0
-0.17476980981466889,-0.036186222575452634,0.02961400504279197,0.0
-0.1747867077334771,-0.03620070650585967,0.029654506403744986,0.0
-0.17478912172187827,-0.03620285227332738,0.029597643565850686,0.0
-0.17474218305852213,-0.036183272145184533,0.029599789333318395,0.0
-0.17471321519770805,-0.03618675901731956,0.029566261716635435,0.0
-0.17475183901212682,-0.036230747250407605,0.029430005482435878,0.0
-0.17473386820958475,-0.036182735703317606,0.02963734026400331,0.0
-0.17472260293037928,-0.03620633914546241,0.029778960916872134,0.0
-0.17469470795329906,-0.036157254714638556,0.02950671666940649,0.0
-0.17469792660450062,-0.036209557796663974,0.02961990590332817,0.0
-0.1747105329883734,-0.03625005915761699,0.029806319452085433,0.0
-0.17472340759317967,-0.036240939645879225,0.029642704682672584,0.0
-0.1746815651275593,-0.036189977668521126,0.0296351944965356,0.0
-0.1746764689298235,-0.03623021080854068,0.029652360636277277,0.0
-0.17470785077903878,-0.03624871805294967,0.02962285633359627,0.0
-0.17469390329049866,-0.03620204761052699,0.02962714786853169,0.0
-0.17467164095302115,-0.03618219926145068,0.029520127716079675,0.0
-0.17463704045260434,-0.03620204761052699,0.02959442491464912,0.0
-0.17463489468513663,-0.0362100942385309,0.029718342985909342,0.0
-0.174643209534074,-0.03620848491293012,0.02949062341339867,0.0
-0.17462792094086657,-0.036192928098789226,0.029447439843111017,0.0
-0.1746196060919292,-0.03622001841306906,0.02979612705661381,0.0
-0.17461987431286266,-0.03622001841306906,0.029733095137249844,0.0
-0.17463167603393506,-0.03621921375026867,0.029631707624400573,0.0
-0.17458876068458087,-0.03619158699412191,0.029651555973476885,0.0
