0.061556704229915646,0.00923967471595701,0.1550708597982955,0.0
0.06156260509045185,0.009250671774229021,0.1550759559960313,0.0
0.061568237730054584,0.009295732891050922,0.15508346618216828,0.0
0.06158325810232855,0.009253622204497122,0.15507488311229745,0.0
0.06156206864858492,0.009245307355559748,0.1550679093680274,0.0
0.061570383497522294,0.009290636693315112,0.15510653318244616,0.0
0.0615548266833814,0.009252549320763267,0.15507488311229745,0.0
0.06155563134618179,0.009206415320207514,0.15509231747297259,0.0
0.06154973048564559,0.009209365750475615,0.1551011687637769,0.0
0.06155697245084911,0.009303243077187905,0.1551306730664579,0.0
0.06158084411392738,0.009340257566005893,0.15514354767126415,0.0
0.06156421441605263,0.009285540495579302,0.15514408411313108,0.0
0.061549462264712126,0.009296805774784776,0.155181635043816,0.0
0.061543024962309,0.009330065170534273,0.15517761172981404,0.0
0.06154678005537749,0.00931826344946187,0.15518860878808605,0.0
0.06154034275297436,0.009341866891606675,0.15520175161382577,0.0
0.061551608032179836,0.009308339274923715,0.15521382155583163,0.0
0.06153497833430509,0.009296269332917849,0.1552317923583737,0.0
0.06152934569470235,0.00934079400787282,0.15527819457986292,0.0
0.06151620286896263,0.009319336333195725,0.15528221789386487,0.0
0.06153497833430509,0.009272934111706509,0.1552629059866555,0.0
0.06151968974109766,0.009261400611567569,0.15527443948679442,0.0
0.06153095502030313,0.009341330449739747,0.1553345209758903,0.0
0.06152076262483151,0.009308339274923715,0.15532432858041867,0.0
0.06149930495015442,0.009273470553573436,0.1553337163130899,0.0
0.06150466936882369,0.009335161368270083,0.15536724392977286,0.0
0.061493940531485144,0.009342135112540138,0.15538306896484722,0.0
0.061502791822289446,0.009278566751309246,0.15538923804631688,0.0
0.061516471089896094,0.009292514239849357,0.15542276566299984,0.0
0.061504937589757155,0.009281248960643883,0.15546755855888827,0.0
0.06151110667122682,0.009287418042113547,0.15559710926975123,0.0
0.06150547403162408,0.009316922344794552,0.15563439197950268,0.0
0.06148857611281587,0.009262741716234887,0.1556904501545966,0.0
0.06151352065962799,0.009287418042113547,0.15570976206180598,0.0
0.06151459354336185,0.009321750321596899,0.15570386120126978,0.0
0.061504132926956764,0.009329796949600809,0.1557848639231758,0.0
0.061495013415219,0.009385050461894327,0.15609009934545748,0.0
0.06149581807801939,0.009357691926681032,0.15611370278760228,0.0
0.06148482101974738,0.009358496589481423,0.15613033248547703,0.0
0.06148696678721509,0.009359301252281814,0.15617002918362966,0.0
0.06149528163615246,0.009379954264158517,0.1562220640447216,0.0
0.061491794764017435,0.00934803597307634,0.1562730260220797,0.0
0.06147006886840688,0.009290904914248575,0.15646265822203853,0.0
0.061474360403342296,0.009359837694148741,0.15652542192046903,0.0
0.06146577733347146,0.009384782240960864,0.15654205161834378,0.0
0.06146497267067107,0.009410799671506844,0.15658282120023026,0.0
0.06147972482201157,0.009459079439530307,0.15660722930517545,0.0
0.06147892015921118,0.009390951322430528,0.15660293777024004,0.0
0.06145504849613291,0.009349108856810194,0.15678532800499534,0.0
0.06146738665907224,0.00938961021776321,0.156799007272602,0.0
0.06147892015921118,0.009411067892440308,0.1568529196802282,0.0
0.061472214635874586,0.009382904694426618,0.15693982326267042,0.0
0.061460412914802184,0.009341598670673211,0.15696825468161757,0.0
0.06147033708934034,0.009360105915082205,0.15698810303069388,0.0
0.06143600480985699,0.009390683101497065,0.1572193094753396,0.0
0.061450220519330565,0.00934803597307634,0.15723888960348245,0.0
0.06146658199627185,0.009393365310831701,0.15729360667390904,0.0
0.061473555740541905,0.009400875496968684,0.15732525674405776,0.0
0.06145343917053213,0.009389878438696674,0.15736012546540804,0.0
0.061451025182130956,0.009389073775896283,0.157386142895954,0.0
0.06144968407746364,0.00935179106614483,0.15759106368912026,0.0
0.06146094935666911,0.009341866891606675,0.157596696328723,0.0
0.061472214635874586,0.00934293977534053,0.15761869044526702,0.0
0.061483748136013525,0.009375126287356171,0.15766562910862317,0.0
0.06146014469386872,0.00936922542681997,0.15769379230663685,0.0
0.061476506170810005,0.009320945658796508,0.15768815966703412,0.0
0.061461217577602575,0.009308339274923715,0.1578890571461984,0.0
0.06144619720532861,0.009344280880007848,0.15791909789074635,0.0
0.06145451205426598,0.00939980261323483,0.15796710943783634,0.0
0.061464168007870676,0.009358496589481423,0.15799580907771696,0.0
0.06147167819400766,0.00939256064803131,0.15803201890373456,0.0
0.06146872776373956,0.009424210718180028,0.1580258498222649,0.0
0.06147167819400766,0.0093874644502955,0.15825008252264053,0.0
0.06144861119372978,0.009422064950712319,0.15831981996534109,0.0
0.06147301929867498,0.009403825927236785,0.15833618144228237,0.0
0.061494745194285536,0.009404362369103712,0.15834288696561896,0.0
0.06147838371734425,0.009398729729500975,0.15835468868669136,0.0
0.061456926042667157,0.00942877047404891,0.15838419298937237,0.0
0.061475701508009614,0.00937941782229159,0.1586092303525484,0.0
0.06146524089160453,0.00937137119428768,0.158656437236838,0.0
0.061467118438138776,0.009366811438418797,0.15871598228406694,0.0
0.06146738665907224,0.00933784357760472,0.1587318073191413,0.0
0.06147596972894308,0.009323091426264217,0.15876238450555616,0.0
0.061477310833610396,0.009344817321874775,0.15875085100541722,0.0
0.06146738665907224,0.00938961021776321,0.15879296169197102,0.0
0.061480797705745424,0.009377003833890417,0.15876694426142504,0.0
0.06144646542626207,0.00936412922908416,0.15879054770356985,0.0
0.0614381505773247,0.009352595728945222,0.15887450085574398,0.0
0.061461217577602575,0.00941267721804109,0.15887396441387705,0.0
0.061470605310273804,0.009405435252837567,0.15889166699548565,0.0
0.06144458787972783,0.009385050461894327,0.15904106605542492,0.0
0.06145504849613291,0.009334356705469692,0.15903731096235643,0.0
0.06142742173998615,0.009338380019471647,0.15908290852104526,0.0
0.06140891449557716,0.009408922124972598,0.15912957896346794,0.0
0.06141401069331297,0.00942501538098042,0.15918536891762838,0.0
0.06144780653092939,0.009406239915637958,0.1592207740808456,0.0
0.06142742173998615,0.009422064950712319,0.15960593934129946,0.0
0.061452366286798274,0.00944915526499215,0.1596115719809022,0.0
0.06145773070546755,0.009411336113373771,0.1596448313766517,0.0
0.06142232554225034,0.00937646739202349,0.15968667384227203,0.0
0.0614440514378609,0.009367884322152652,0.1597274434241585,0.0
0.061443783216927436,0.009346694868409021,0.15972207900548924,0.0
0.0614019407513071,0.009368688984953043,0.1599320959963913,0.0
0.061405159402508666,0.009363861008150696,0.1599535536710684,0.0
0.06141937511198224,0.009334088484536228,0.15997447490387856,0.0
0.06142795818185308,0.00933274737986891,0.1600133669392308,0.0
0.06138557927436582,0.009339184682272038,0.1600613784863208,0.0
0.061408646274643694,0.009379954264158517,0.16010724426594308,0.0
0.06138048307663001,0.009308875716790642,0.16204648161488552,0.0
0.061371631785825706,0.00928178540251081,0.1621256067902573,0.0
0.061381824181297326,0.009322823205330753,0.16216718103494418,0.0
0.06139791743730515,0.009320140995996117,0.16219561245389133,0.0
0.061395503448903974,0.009326310077465781,0.1622637405709911,0.0
0.061378069088228834,0.009300292646919804,0.1622452333265821,0.0
0.061358488960085986,0.009277493867575391,0.16302951133602991,0.0
0.061385311053432354,0.009386123345628182,0.16317998327970304,0.0
0.061371631785825706,0.009390683101497065,0.1632636682109437,0.0
0.061360634727553695,0.00936412922908416,0.16338383118913544,0.0
0.061378069088228834,0.00933274737986891,0.16346697967850918,0.0
0.06135527030888442,0.009341062228806284,0.1635222331908027,0.0
0.06133193508767308,0.009331674496135055,0.16379984185693763,0.0
0.06133488551794118,0.009330869833334664,0.16384195254349143,0.0
0.061308868087395205,0.009316385902927625,0.163885672555646,0.0
0.06130269900592554,0.009320140995996117,0.1639100806605912,0.0
0.061324961343403026,0.00931450835639338,0.16392134593979668,0.0
0.06131235495953023,0.009253085762630195,0.16394199895167338,0.0
0.061288483296451965,0.009308607495857178,0.16395836042861467,0.0
0.06130538121526018,0.00928902736771433,0.1639744536846225,0.0
0.06130404011059286,0.009239138274090083,0.1639698939287536,0.0
0.061314768947931406,0.009283394728111592,0.16397257613808824,0.0
0.06131369606419755,0.009307534612123324,0.16399591135929958,0.0
0.06130833164552828,0.009330869833334664,0.16400073933610193,0.0
0.06130484477339325,0.009327919403066563,0.16394199895167338,0.0
0.06132683888993727,0.009281248960643883,0.16391115354432506,0.0
0.061316110052598724,0.00928393116997852,0.1639218823816636,0.0
0.06126327052870638,0.009234846739154664,0.16394816803314305,0.0
0.06128285065684923,0.009191663168867012,0.16395031380061076,0.0
0.06130940452926213,0.00931316725172606,0.16397043037062053,0.0
0.06126970783110951,0.009316117681994161,0.16404687333665768,0.0
0.06129813925005666,0.00929492822825053,0.16404767799945807,0.0
0.06129894391285705,0.009278566751309246,0.16402729320851483,0.0
0.061284191761516546,0.009300292646919804,0.1640313165225168,0.0
0.06126327052870638,0.009313435472659524,0.16403104830158333,0.0
0.06127265826137761,0.009306461728389469,0.1640254156619806,0.0
0.06127802268004688,0.00931960455412919,0.16406055260426433,0.0
0.06127292648231107,0.00931236258892567,0.16405089665065964,0.0
0.06127802268004688,0.009258450181299468,0.1640179054758436,0.0
0.06129009262205275,0.009208561087675224,0.16403078008064986,0.0
0.061260856540305206,0.009255499751031368,0.16401683259210975,0.0
0.061262197644972524,0.009323627868131144,0.16402487922011366,0.0
0.06125897899377096,0.009258718402232932,0.16398115920795908,0.0
0.06125549212163593,0.00930726639118986,0.16398571896382796,0.0
0.06126246586590599,0.00930431596092176,0.16396882104501975,0.0
0.061284191761516546,0.009299487984119413,0.16396935748688668,0.0
0.061232961563224976,0.00922653189021729,0.16394789981220959,0.0
0.06122867002828956,0.009191663168867012,0.16392107771886322,0.0
0.06126058831937174,0.009292514239849357,0.16392617391659903,0.0
0.06124288573776313,0.009284199390911983,0.16392885612593366,0.0
0.061257906110037105,0.009253353983563658,0.16393690275393757,0.0
0.061268098505508725,0.009331138054268127,0.1638998882651196,0.0
0.06126246586590599,0.00931826344946187,0.16392805146313327,0.0
0.061249054819232804,0.009290904914248575,0.16395326423087886,0.0
0.06125736966817018,0.009295196449183994,0.16388674543937987,0.0
0.06125763788910364,0.009308339274923715,0.16386153267163428,0.0
0.06128204599404884,0.009286345158379693,0.16385858224136618,0.0
0.06127212181951068,0.009246380239293603,0.16385455892736422,0.0
0.06124476328429738,0.009311557926125279,0.1638872818812468,0.0
0.061257101447236714,0.009302706635320977,0.1639012293697869,0.0
0.06128392354058308,0.009282858286244665,0.16388459967191216,0.0
0.06129009262205275,0.009330869833334664,0.16391624974206087,0.0
0.06130725876179442,0.009342403333473602,0.16392215060259707,0.0
0.06130108968032476,0.009311289705191815,0.1639175908467282,0.0
0.0612823142149823,0.009280712518776955,0.16388325856724484,0.0
0.061273194703244535,0.009334088484536228,0.16394468116100802,0.0
0.06129009262205275,0.00930726639118986,0.16382022664788087,0.0
0.0612852646452504,0.009288222704913938,0.16385509536923115,0.0
0.06129492059885509,0.009321482100663435,0.16383122370615288,0.0
0.061292774831387384,0.009261937053434496,0.1637866990311979,0.0
0.06128499642431694,0.00920105090153824,0.16383202836895328,0.0
0.06128070488938152,0.009323627868131144,0.16386716531123702,0.0
0.061301626122191685,0.009250135332362094,0.16379447743826836,0.0
0.061292238389520456,0.009298146879452095,0.1638237135200159,0.0
0.06127694979631303,0.009345085542808239,0.1638229088572155,0.0
0.061288483296451965,0.00934079400787282,0.16378508970559713,0.0
0.06130269900592554,0.009327382961199636,0.16377409264732512,0.0
0.061292238389520456,0.009304852402788687,0.16375907227505115,0.0
0.06131289140139716,0.009329260507733882,0.1637558536238496,0.0
0.0613000167965909,0.009324432530931535,0.16373332306543864,0.0
0.06129465237792163,0.00933784357760472,0.1637188391350316,0.0
0.06128606930805079,0.009326041856532317,0.16368155642528012,0.0
0.061297334587256266,0.009324700751864999,0.16365795298313532,0.0
0.06127802268004688,0.00930941215865757,0.16366895004140733,0.0
0.06128875151738543,0.009312094367992206,0.16363113088978895,0.0
0.06127963200564766,0.009275616321041145,0.16362388892458543,0.0
0.06126353874963984,0.00931960455412919,0.16360162658710795,0.0
0.06126675740084141,0.009352595728945222,0.1636212067152508,0.0
0.06128070488938152,0.009323627868131144,0.16360752744764415,0.0
0.0612705124939099,0.009293855344516676,0.1635917024125698,0.0
0.0612616612031056,0.00926515570463606,0.16353725356307666,0.0
0.061260051877504815,0.009242625146225111,0.16350265306265985,0.0
0.06125844255190403,0.009277225646641928,0.16353510779560895,0.0
0.06126058831937174,0.009288490925847402,0.1635243789582704,0.0
0.061268098505508725,0.009270520123305336,0.16352411073733694,0.0
0.06126997605204297,0.009262473495301423,0.16347475808557962,0.0
0.06125120058670051,0.009260595948767178,0.16347288053904538,0.0
0.061263002307772915,0.00924986711142863,0.16344123046889666,0.0
0.061263806970573306,0.00920105090153824,0.16345759194583795,0.0
0.06126407519150677,0.009256036192898295,0.1634683207831765,0.0
0.06124717727269855,0.009186298750197738,0.163453568631836,0.0
0.061249859482033195,0.009250135332362094,0.16343318384089275,0.0
0.061234302667892294,0.009298146879452095,0.16334628025845052,0.0
0.06124556794709777,0.009300829088786731,0.1633272365721746,0.0
0.061275340470712245,0.0092737387745069,0.16330604711843097,0.0
0.06123993530749503,0.009232969192620418,0.1633036331300298,0.0
0.06123108401669073,0.009277493867575391,0.16328914919962276,0.0
0.06123698487722693,0.009255231530097904,0.16327144661801415,0.0
0.06121499076068291,0.009255499751031368,0.16321485200105332,0.0
0.06123483910975922,0.009295196449183994,0.1632046596055817,0.0
0.06123832598189425,0.009280176076910028,0.16316201247716097,0.0
0.061235911993493077,0.009149820703246677,0.16308637417392421,0.0
0.06121713652815062,0.009264619262769133,0.1631094411742021,0.0
0.06121338143508213,0.009266496809303379,0.1631389454768831,0.0
0.061227060702688775,0.009238333611289692,0.16296111499799668,0.0
0.061212576772281736,0.009245307355559748,0.1629350975674507,0.0
0.06120774879547939,0.009266496809303379,0.16294207131172075,0.0
0.06121418609788252,0.009240211157823938,0.16292275940451137,0.0
0.06120050683027587,0.009200782680604777,0.16288252626449182,0.0
0.06120774879547939,0.00926300993716835,0.1628752842992883,0.0
0.0611648334461252,0.009236456064755446,0.1624402299452102,0.0
0.061165101667058665,0.009294391786383603,0.16244881301508104,0.0
0.06117636694626414,0.009280176076910028,0.16242869644507127,0.0
0.061168052097326765,0.009323627868131144,0.16242681889853702,0.0
0.06117502584159682,0.00930807105399025,0.16238363532824937,0.0
0.06119192376040503,0.009320140995996117,0.16238229422358205,0.0
0.061160810132123246,0.009219826366880698,0.16230558303661144,0.0
0.06115812792278861,0.009232432750753491,0.1622666910012592,0.0
0.06116617455079252,0.009244502692759357,0.1623369648858267,0.0
0.06115115417851855,0.009202928448072486,0.16226910498966038,0.0
0.061180390260266095,0.009231896308886564,0.16226508167565842,0.0
0.061168856760127156,0.009237797169422765,0.1622570350476545,0.0
0.06116456522519174,0.009289295588647793,0.16204058075434932,0.0
0.0611618830158571,0.009289295588647793,0.16202636504487575,0.0
0.061164297004258274,0.009274811658240754,0.16204111719621625,0.0
0.0611530317250528,0.009282858286244665,0.16203360701007927,0.0
0.06116107835305671,0.009255767971964831,0.1620089306842006,0.0
0.06119406952787274,0.009255231530097904,0.16195904159057636,0.0
0.06117797627186492,0.009300829088786731,0.16184826634505586,0.0
0.06116268767865749,0.009260595948767178,0.16180052301889933,0.0
0.0611559821553209,0.00925925484409986,0.16183458707744922,0.0
0.061159200806522464,0.009276420983841537,0.16183592818211653,0.0
0.061152763504119335,0.009302974856254441,0.16180830142596977,0.0
0.06116268767865749,0.009259791285966787,0.16177235982088564,0.0
0.06117422117879643,0.009283126507178129,0.16152506012023213,0.0
0.06116134657399017,0.009298415100385558,0.1615312292017018,0.0
0.061147667306383525,0.009285540495579302,0.16150145667808732,0.0
0.06115973724838939,0.009286345158379693,0.16147248881727322,0.0
0.06114739908545006,0.009247184902093994,0.16147061127073897,0.0
0.06115678681812129,0.009244234471825893,0.1614483489332615,0.0
0.06118387713240112,0.009294660007317067,0.16146766084047087,0.0
0.06115517749252051,0.009310753263324888,0.1614614917590012,0.0
0.06114096178304693,0.009372444078021534,0.1614311827935198,0.0
0.061154909271587045,0.009324968972798463,0.16138638989763138,0.0
0.06115249528318587,0.009308875716790642,0.16138960854883294,0.0
0.06113988889931308,0.009317190565728016,0.1613729788509582,0.0
0.06115034951571816,0.009288222704913938,0.1613279177341363,0.0
0.06116107835305671,0.009284467611845447,0.1612887574778506,0.0
0.06113184227130917,0.009275348100107682,0.1612732006637097,0.0
0.06112379564330526,0.0092737387745069,0.16128822103598367,0.0
0.061143912213315034,0.009317727007594943,0.16129278079185255,0.0
0.06113988889931308,0.009269983681438408,0.16125442519836725,0.0
0.06115812792278861,0.009248526006761312,0.1612297488724886,0.0
0.06113506092251073,0.00926300993716835,0.16122089758168429,0.0
0.06113801135277883,0.00928688160024662,0.16121311917461384,0.0
0.061147667306383525,0.009301633751587123,0.1611758364648624,0.0
0.06114203466678079,0.009286076937446229,0.16115250124365105,0.0
0.06111360324783364,0.009298683321319022,0.1611484779296491,0.0
0.06111655367810174,0.00926810613490416,0.16112728847590546,0.0
0.061142571108647716,0.009302974856254441,0.16110583080122837,0.0
0.061142571108647716,0.009324968972798463,0.16109912527789177,0.0
0.06113130582944224,0.009327382961199636,0.16109268797548865,0.0
0.061124332085172185,0.009313703693592988,0.16109268797548865,0.0
0.06114578975984928,0.009277493867575391,0.16102053654438692,0.0
0.061149813073851235,0.00928902736771433,0.16098915469517167,0.0
0.061117090119968666,0.009306461728389469,0.16099022757890552,0.0
0.06113506092251073,0.00930941215865757,0.1609652830320934,0.0
0.061150617736651626,0.00929197779798243,0.16094328891554938,0.0
0.06112030877117023,0.009231896308886564,0.1609025193336629,0.0
0.061120040550236766,0.009250135332362094,0.16089393626379206,0.0
0.061120576992103694,0.009314776577326843,0.16087623368218346,0.0
0.061121381654904085,0.009295732891050922,0.16085423956563943,0.0
0.06113264693410956,0.009257645518499077,0.16079925427427938,0.0
0.06111735834090213,0.009244502692759357,0.16080005893707977,0.0
0.06111226214316632,0.009322286763463826,0.16082098016988994,0.0
0.06113264693410956,0.009325237193731926,0.16079415807654357,0.0
0.061124332085172185,0.00926435104183567,0.16076250800639486,0.0
0.06112701429450682,0.00924986711142863,0.16077001819253184,0.0
0.06112325920143833,0.009347767752142876,0.16078986654160815,0.0
0.06111789478276906,0.009304852402788687,0.1607946945184105,0.0
0.061135329143444196,0.00929412356545014,0.16077672371586843,0.0
0.06112379564330526,0.009225190785549972,0.16078047880893692,0.0
0.06112299098050487,0.009239406495023547,0.16076304444826178,0.0
0.06113559736437766,0.009303511298121368,0.16076116690172754,0.0
0.061152763504119335,0.00927588454197461,0.16074426898291932,0.0
0.06114444865518196,0.009291709577048966,0.160724420633843,0.0
0.061129428282907995,0.009299756205052877,0.1607126189127706,0.0
0.06113345159690995,0.00929492822825053,0.16067453154021877,0.0
0.06114069356211347,0.009301633751587123,0.16066594847034793,0.0
0.061141766445847325,0.00926810613490416,0.16063993103980195,0.0
0.06113130582944224,0.009277225646641928,0.16061552293485676,0.0
0.06112969650384146,0.009271056565172263,0.16060908563245363,0.0
0.06110877527103129,0.009249330669561703,0.1605672431668333,0.0
0.06113291515504302,0.009230555204219245,0.16054927236429123,0.0
0.061149813073851235,0.009262741716234887,0.16054256684095464,0.0
0.06112781895730721,0.009253353983563658,0.16052915579428145,0.0
0.06114203466678079,0.009199441575937458,0.16048114424719145,0.0
0.06112674607357336,0.009168059726722208,0.16043742423503687,0.0
0.06113506092251073,0.009242625146225111,0.1604741705029214,0.0
0.061116285457168275,0.009298146879452095,0.1604269636186318,0.0
0.06114444865518196,0.009341330449739747,0.16042642717676486,0.0
0.061154104608786654,0.00930807105399025,0.16038753514141263,0.0
0.06114337577144811,0.009232432750753491,0.16038297538554375,0.0
0.061154104608786654,0.009288759146780866,0.16037171010633827,0.0
0.061151958841318944,0.009290100251448184,0.1603625905946005,0.0
0.06114203466678079,0.009273202332639972,0.16031860236151246,0.0
0.06113854779464576,0.009262741716234887,0.16030116800083732,0.0
0.061143912213315034,0.009237797169422765,0.16029902223336961,0.0
0.06114230288771425,0.00920105090153824,0.1603124332800428,0.0
0.06116992964386101,0.009226800111150754,0.1602850747448295,0.0
0.0611618830158571,0.009194345378201648,0.16027300480282364,0.0
0.06113130582944224,0.009196222924735894,0.1602872205122972,0.0
0.06112191809677101,0.009236456064755446,0.1602976811287023,0.0
0.06113720668997844,0.009245039134626284,0.16027810100055945,0.0
0.06113211049224263,0.009162695308052934,0.16022874834880213,0.0
0.06111601723623481,0.009180934331528464,0.16020943644159275,0.0
0.06111172570129939,0.009221167471548017,0.16021372797652816,0.0
0.06113801135277883,0.009207488203941369,0.16017564060397632,0.0
0.06113988889931308,0.009149820703246677,0.16015766980143425,0.0
0.0611441804342485,0.009229750541418854,0.16015203716183152,0.0
0.06113854779464576,0.009285272274645838,0.16015498759209962,0.0
0.06113425625971034,0.009232969192620418,0.16014908673156342,0.0
0.06113854779464576,0.009240211157823938,0.16012360574288437,0.0
0.06114444865518196,0.009235651401955055,0.1600959789867376,0.0
0.06112755073637375,0.009230018762352318,0.1600812268353971,0.0
0.06115625037625436,0.009230018762352318,0.16003938436977677,0.0
0.0611618830158571,0.009226800111150754,0.15999754190415644,0.0
0.06115249528318587,0.00921848526221338,0.15998118042721515,0.0
0.06114954485291777,0.0092316280879531,0.1599793028806809,0.0
0.06115437282972012,0.009205074215540196,0.15996991514800968,0.0
0.06117180719039526,0.009180934331528464,0.15990420101931108,0.0
0.061160810132123246,0.009180129668728073,0.15991680740318387,0.0
0.06113640202717805,0.009171546598857236,0.1598929357401056,0.0
0.0611559821553209,0.009201319122471704,0.15988462089116823,0.0
0.061173952957862966,0.009221703913414944,0.15987389205382968,0.0
0.06115169062038548,0.00917261948259109,0.15986504076302538,0.0
0.0611648334461252,0.009191126727000084,0.1598175656578023,0.0
0.06116563810892559,0.009204269552739805,0.15983580468127784,0.0
0.06115383638785319,0.009134532110039248,0.15976553079671035,0.0
0.061168856760127156,0.009210170413276006,0.15974541422670058,0.0
0.06115732325998822,0.009206415320207514,0.15973253962189432,0.0
0.06118682756266922,0.009224117901816117,0.15975587484310566,0.0
0.06118012203933263,0.009179593226861146,0.1596928429237417,0.0
0.06117690338813107,0.009175301691925727,0.15969177004000784,0.0
0.06118012203933263,0.009212316180743715,0.15971832391242075,0.0
0.06117288007412911,0.009195418261935503,0.15972985741255968,0.0
0.06117127074852833,0.009184421203663492,0.15970276709827985,0.0
0.06116751565545984,0.009156258005649806,0.15967970009800198,0.0
0.061165101667058665,0.009187639854865056,0.15964831824878672,0.0
0.06116456522519174,0.009212047959810251,0.15963544364398047,0.0
0.06118092670213302,0.00921419372727796,0.15960245246916444,0.0
0.061163760562391346,0.00915733088938366,0.15958179945728773,0.0
0.0611500812947847,0.009135068551906175,0.15961130375996874,0.0
0.06115329994598626,0.009184421203663492,0.15962015505077304,0.0
0.06115383638785319,0.009160817761518688,0.1595525633755402,0.0
0.06117556228346375,0.009202928448072486,0.15957214350368304,0.0
0.06117153896946179,0.009171546598857236,0.15957214350368304,0.0
0.06115115417851855,0.009213120843544106,0.15957670325955192,0.0
0.06115142239945202,0.009214461948211424,0.15954183453820164,0.0
0.06116832031826023,0.00916671862205489,0.15950777047965176,0.0
0.061177439829997994,0.009156258005649806,0.15951715821232298,0.0
0.06117261185319565,0.009180666110595,0.15954854006153824,0.0
0.06116563810892559,0.009193540715401257,0.15956892485248148,0.0
0.06117288007412911,0.00921043863420947,0.15953351968926427,0.0
0.06119406952787274,0.009212584401677179,0.159520645084458,0.0
0.06118280424866727,0.0091747652500588,0.1595214497472584,0.0
0.06118468179520151,0.009207219983007905,0.1594957005376459,0.0
0.061178244492798385,0.009188176296731984,0.1594793390607046,0.0
0.06119701995814084,0.009232164529820027,0.15947987550257153,0.0
0.06118602289986883,0.009208561087675224,0.15947236531643455,0.0
0.06117502584159682,0.009213657285411033,0.15945734494416058,0.0
0.061171002527594866,0.009222240355281871,0.1594350826066831,0.0
0.06118682756266922,0.009174497029125336,0.15940450542026824,0.0
0.06116054191118978,0.009128631249503045,0.15940316431560092,0.0
0.06117288007412911,0.009188712738598911,0.15935917608251288,0.0
0.06120211615587665,0.009232700971686955,0.15935112945450897,0.0
0.061212576772281736,0.009241015820624329,0.1593221615936949,0.0
0.06118709578360269,0.009173155924458018,0.15931518784942483,0.0
0.061168052097326765,0.009232969192620418,0.15932779423329763,0.0
0.06119970216747548,0.009247989564894385,0.15929775348874967,0.0
0.061192191981338497,0.009188980959532375,0.15926985851166944,0.0
0.06117261185319565,0.009113610877229079,0.15926047077899821,0.0
0.06118495001613498,0.009184689424596956,0.15924759617419196,0.0
0.06118790044640308,0.009194881820068576,0.15923928132525458,0.0
0.06119165553947157,0.009173424145391481,0.1591947566502996,0.0
0.061199433946542016,0.009131849900704609,0.15914647688227615,0.0
0.061198629283741625,0.009131849900704609,0.15918349137109414,0.0
0.061192728423205424,0.009195418261935503,0.15921084990630743,0.0
0.06119755640000777,0.009198905134070531,0.15915237774281235,0.0
0.061218209411884474,0.009181738994328855,0.15911482681212744,0.0
0.06121418609788252,0.00919005384326623,0.15911053527719202,0.0
0.06121633186535023,0.009192736052600866,0.15914647688227615,0.0
0.061229206470156484,0.009180934331528464,0.15909095514904917,0.0
0.061210967446680954,0.00913694609844042,0.15904374826475956,0.0
0.061210967446680954,0.009180666110595,0.15907620299770867,0.0
0.061202384376810116,0.009156794447516733,0.15904374826475956,0.0
0.06120640769081207,0.009212852622610642,0.159022022369149,0.0
0.06123376622602537,0.009189517401399302,0.1590249727994171,0.0
0.06120640769081207,0.009142578738043158,0.15898634898499833,0.0
0.06118736400453615,0.009149016040446286,0.1589592586707185,0.0
0.061202384376810116,0.009155453342849415,0.15895979511258543,0.0
0.06118146314399995,0.009140701191508912,0.1589251946121686,0.0
0.06115812792278861,0.009114683760962933,0.1589251946121686,0.0
0.0611530317250528,0.009140701191508912,0.15893672811230755,0.0
0.061160810132123246,0.00909698117935433,0.15889998184442303,0.0
0.06119111909760464,0.009113610877229079,0.15888066993721364,0.0
0.06120560302801168,0.009170205494189917,0.15886591778587314,0.0
0.06117583050439721,0.009097249400287794,0.15886189447187118,0.0
0.06117878093466531,0.009133727447238857,0.1588691364370747,0.0
0.06120345726054397,0.009118975295898352,0.1588514338554661,0.0
0.061210967446680954,0.009134532110039248,0.1588573347160023,0.0
0.06119004621387079,0.00914123763337584,0.15885545716946806,0.0
0.061168856760127156,0.009164036412720252,0.15881844268065007,0.0
0.061169393201994084,0.009135604993773102,0.15878330573836633,0.0
0.06116107835305671,0.00911226977256176,0.15878169641276554,0.0
0.06115812792278861,0.009112537993495224,0.1587798188662313,0.0
0.061162151236790564,0.009102345598023604,0.15877364978476163,0.0
0.061176098725330676,0.009123803272700699,0.15877150401729392,0.0
0.06118065848119956,0.009072304853475672,0.15873904928434482,0.0
0.06117985381839917,0.009098590504955113,0.1587487052379495,0.0
0.06118360891146766,0.009150625366047068,0.15875862941248767,0.0
0.06121445431881598,0.009150088924180141,0.15874012216807867,0.0
0.06118173136493341,0.009115756644696788,0.1587162505050004,0.0
0.06119675173720738,0.009117097749364107,0.1587065945513957,0.0
0.061179049155598776,0.009164036412720252,0.15868030889991627,0.0
0.06119594707440699,0.009142310517109694,0.15864061220176365,0.0
0.061204530144277826,0.009151966470714387,0.15860788924788108,0.0
0.06120345726054397,0.009138555424041203,0.15859394175934097,0.0
0.061179585597465704,0.009153307575381705,0.15860198838734488,0.0
0.0611980928418747,0.009194077157268185,0.1586121807828165,0.0
0.06120774879547939,0.009141774075242767,0.15855773193332337,0.0
0.0612039937024109,0.009173424145391481,0.15853144628184393,0.0
0.06117636694626414,0.00914633383111165,0.1585250089794408,0.0
0.06119755640000777,0.009129167691369972,0.15856390101479304,0.0
0.06119701995814084,0.0091747652500588,0.15854753953785175,0.0
0.06117422117879643,0.009178520343127291,0.15851588946770304,0.0
0.061162151236790564,0.009172083040724163,0.15851267081650147,0.0
0.06118495001613498,0.009162158866186007,0.15849818688609443,0.0
0.061189241551070396,0.009145797389244722,0.15848450761848779,0.0
0.06118360891146766,0.009125144377368017,0.15849738222329404,0.0
0.06118575467893537,0.009133727447238857,0.1585140119211688,0.0
0.06113506092251073,0.009034485701857293,0.1584866533859555,0.0
0.061179049155598776,0.009094567190953157,0.15846465926941147,0.0
0.06119406952787274,0.009146065610178186,0.15847538810675002,0.0
0.06115946902745593,0.009105564249225168,0.1584651957112784,0.0
0.06116349234145788,0.009158940214984443,0.15846680503687918,0.0
0.06117797627186492,0.00911522020282986,0.15843998294353281,0.0
0.06119299664413889,0.009117097749364107,0.15841477017578723,0.0
0.061188436888270005,0.009092957865352375,0.15842120747819036,0.0
0.061175294062530285,0.009106637132959023,0.15841235618738606,0.0
0.061172343632262184,0.009095640074687012,0.15840940575711795,0.0
0.0611766351671976,0.009085179458281929,0.15839840869884594,0.0
0.0611951424116066,0.009103150260823995,0.1584150383967207,0.0
0.061183340690534195,0.009085447679215392,0.15837856034976963,0.0
0.061152763504119335,0.009064258225471761,0.15838928918710818,0.0
0.061159200806522464,0.009100736272422822,0.1583729277101669,0.0
0.06118495001613498,0.009103150260823995,0.15835844377975986,0.0
0.061175294062530285,0.009083301911747683,0.15837078194269918,0.0
0.06117127074852833,0.008999080538640087,0.15835120181455634,0.0
0.061184145353334586,0.009074182400009918,0.1583729277101669,0.0
0.061171002527594866,0.009076328167477627,0.1583965311523117,0.0
0.06115812792278861,0.009079546818679191,0.1583595166634937,0.0
0.061158932585589,0.009050578957865114,0.15834422807028628,0.0
0.061195678853473524,0.009050042515998186,0.15833940009348393,0.0
0.061192191981338497,0.009066940434806398,0.15834235052375203,0.0
0.061185486458001904,0.00907793749307841,0.15833698610508276,0.0
0.06119031443480425,0.009109587563227124,0.15834127764001818,0.0
0.06119675173720738,0.009080083260546119,0.15830828646520215,0.0
0.061209626342013636,0.009075255283743772,0.15828763345332544,0.0
0.06119836106280816,0.009108246458559805,0.15828173259278924,0.0
0.06117878093466531,0.009101004493356286,0.15826590755771489,0.0
0.06118736400453615,0.009095103632820085,0.1582221875455603,0.0
0.06120855345827978,0.009117902412164498,0.15820689895235288,0.0
0.06118280424866727,0.009082765469880755,0.1582162866850241,0.0
0.06118092670213302,0.009118438854031425,0.15823640325503388,0.0
0.0612010432721428,0.009093494307219303,0.15820502140581863,0.0
0.061189241551070396,0.00904521453919584,0.15817149378913567,0.0
0.06118870510920347,0.009079815039612655,0.15817015268446835,0.0
0.06116349234145788,0.008985669491966901,0.15814279414925506,0.0
0.061173148295062575,0.00908088792334651,0.1581690798007345,0.0
0.0611980928418747,0.009096444737487403,0.1581417212655212,0.0
0.06118575467893537,0.00907150019067528,0.15812080003271103,0.0
0.06116832031826023,0.009085447679215392,0.1581307242072492,0.0
0.06116134657399017,0.00908893455135042,0.15811033941630595,0.0
0.061179049155598776,0.009109587563227124,0.15811409450937444,0.0
0.06115812792278861,0.00904736030666355,0.15810980297443902,0.0
0.0611500812947847,0.00909108031881813,0.1581033656720359,0.0
0.061169393201994084,0.009142310517109694,0.158106316102304,0.0
0.06118307246960073,0.009129972354170363,0.1580996105789674,0.0
0.0611648334461252,0.009068281539473717,0.15808137155549187,0.0
0.0611441804342485,0.009111733330694833,0.15807547069495567,0.0
0.061167247434526374,0.009125680819234944,0.1580974648114997,0.0
0.061178244492798385,0.00910127271428975,0.15805669522961321,0.0
0.06118146314399995,0.009063990004538298,0.15803738332240383,0.0
0.06115946902745593,0.009025366190119528,0.15801941251986176,0.0
0.06116697921359291,0.00909617651655394,0.157991785763715,0.0
0.06116671099265945,0.009105564249225168,0.15800868368252322,0.0
0.061176098725330676,0.009105027807358241,0.1580199489617287,0.0
0.0611648334461252,0.009079815039612655,0.15801002478719053,0.0
0.06115732325998822,0.009070963748808353,0.15798347091477763,0.0
0.06116966142292755,0.009049237853197795,0.15795584415863087,0.0
0.0611707343066614,0.009012759806246735,0.15793680047235495,0.0
0.06117261185319565,0.009009809375978634,0.1579370686932884,0.0
0.06118602289986883,0.009090812097884666,0.1579534301702297,0.0
0.061148471969183917,0.009059430248669415,0.15790139530913774,0.0
0.06115517749252051,0.009106905353892487,0.15790863727434126,0.0
0.061176098725330676,0.009046287422929695,0.15788583849499685,0.0
0.061172343632262184,0.009082765469880755,0.1578987130998031,0.0
0.06119406952787274,0.009074987062810309,0.15791185592554283,0.0
0.061190582655737714,0.009044678097328913,0.1578944215648677,0.0
0.061175294062530285,0.009021611097051036,0.15787671898325908,0.0
0.06117261185319565,0.009029389504121483,0.15786223505285205,0.0
0.061165906329859056,0.009000153422373942,0.1578523108783139,0.0
0.061176098725330676,0.009017319562115617,0.1578788647507268,0.0
0.061168856760127156,0.009043873434528522,0.15787779186699294,0.0
0.06114578975984928,0.009031535271589192,0.15783809516884031,0.0
0.061160810132123246,0.008992375015303493,0.15782012436629825,0.0
0.061183340690534195,0.009024561527319137,0.15780188534282272,0.0
0.06119916572560855,0.009070963748808353,0.157818246819764,0.0
0.061187632225469614,0.009041459446127349,0.15779330227295188,0.0
0.061171002527594866,0.009019197108649863,0.15779920313348808,0.0
0.061178244492798385,0.009000958085174333,0.15778042766814562,0.0
0.061168856760127156,0.008985401271033438,0.1577635297493374,0.0
0.061189241551070396,0.009032608155323047,0.1578174421569636,0.0
0.06118012203933263,0.009042800550794667,0.15781422350576205,0.0
0.06118950977200386,0.009030730608788801,0.1577790865634783,0.0
0.061194337748806206,0.008986205933833829,0.15777050349360747,0.0
0.061194337748806206,0.008941413037945394,0.15777640435414367,0.0
0.06118495001613498,0.00892076002606869,0.15776996705174054,0.0
0.061169393201994084,0.008970380898759471,0.15775092336546462,0.0
0.06118360891146766,0.009048701411330868,0.1577525326910654,0.0
0.06118441357426805,0.008998007654906232,0.1577385852025253,0.0
0.061186291120802296,0.008992375015303493,0.1577230283883844,0.0
0.061162151236790564,0.008916468491133272,0.15768842788796758,0.0
0.06117636694626414,0.008976549980229136,0.15771069022544507,0.0
0.06118468179520151,0.009002299189841651,0.15772839280705367,0.0
0.061163760562391346,0.008960188503287852,0.15770264359744116,0.0
0.061165101667058665,0.009034753922790757,0.1576948651903707,0.0
0.06119701995814084,0.009040923004260421,0.15769727917877188,0.0
0.061199433946542016,0.008977086422096063,0.15767850371342942,0.0
0.06118682756266922,0.008999616980507014,0.15769003721356836,0.0
0.06119299664413889,0.008983255503565728,0.15769727917877188,0.0
0.06118736400453615,0.00894114481701193,0.157681722364631,0.0
0.061189241551070396,0.008937389723943439,0.15769084187636875,0.0
0.06119004621387079,0.008948118561281986,0.15768789144610065,0.0
0.06118360891146766,0.008935512177409193,0.15768547745769948,0.0
0.0611980928418747,0.008900107014191987,0.15768252702743138,0.0
0.06121552720254984,0.008927465549405282,0.15770210715557423,0.0
0.061206675911745535,0.008962334270755561,0.15769915672530613,0.0
0.06120211615587665,0.008924515119137182,0.15765785070155272,0.0
0.06117127074852833,0.008975745317428745,0.1576653608876897,0.0
0.06118360891146766,0.00894624101474774,0.15763907523621026,0.0
0.061184145353334586,0.008934707514608802,0.15763532014314177,0.0
0.061162151236790564,0.008960724945154779,0.15763156505007328,0.0
0.06116322412052442,0.008991302131569638,0.1576366612478091,0.0
0.06117502584159682,0.008920223584201763,0.15759535522405568,0.0
0.06119889750467509,0.008880258665115675,0.15761708111966624,0.0
0.06118468179520151,0.008944631689146958,0.1576468536432807,0.0
0.06118092670213302,0.008937926165810366,0.15766965242262512,0.0
0.061187632225469614,0.008899034130458132,0.15763049216633943,0.0
0.061216868307217155,0.008893133269921931,0.15766187401555468,0.0
0.06120211615587665,0.008904934990994333,0.15766670199235702,0.0
0.06117690338813107,0.008904398549127406,0.1576586553643531,0.0
0.06118602289986883,0.008867115839375954,0.15765463205035116,0.0
0.06120560302801168,0.008896351921123495,0.15765409560848423,0.0
0.061184145353334586,0.008885623083784948,0.15764443965487954,0.0
0.06119165553947157,0.008890451060587294,0.15765168162008306,0.0
0.06119487419067313,0.008872748478978692,0.157626200631404,0.0
0.0611980928418747,0.008906544316595115,0.15762646885233747,0.0
0.061185486458001904,0.008902252781659696,0.1576211044336682,0.0
0.06118226780680034,0.008934707514608802,0.1576189586662005,0.0
0.06118226780680034,0.00890252100259316,0.1576093027125958,0.0
0.06118280424866727,0.008893133269921931,0.15754895300256647,0.0
0.061206944132679,0.008932025305274165,0.1575465390141653,0.0
0.06118575467893537,0.00897252666622718,0.15759803743339032,0.0
0.0611766351671976,0.008973599549961036,0.15758328528204982,0.0
0.06117931737653224,0.00894838678221545,0.15756853313070932,0.0
0.06118146314399995,0.008987547038501147,0.15757443399124552,0.0
0.06114096178304693,0.008953214759017796,0.1575331279674921,0.0
0.061159200806522464,0.008936316840209584,0.15752025336268585,0.0
0.06116858853919369,0.008925319781937573,0.15750764697881306,0.0
0.06117931737653224,0.008955628747418969,0.1575124749556154,0.0
0.06118360891146766,0.008923442235403327,0.1575044283276115,0.0
0.061160810132123246,0.00891056763059707,0.15751354783934926,0.0
0.06115812792278861,0.008913249839931707,0.15751515716495004,0.0
0.06118709578360269,0.008907080758462043,0.15750013679267608,0.0
0.06116402878332481,0.00889232860712154,0.15750174611827686,0.0
0.06116054191118978,0.008888305293119585,0.1574977228042749,0.0
0.061180390260266095,0.008939803712344612,0.15749611347867412,0.0
0.06116349234145788,0.008942754142612712,0.15752561778135513,0.0
0.061148471969183917,0.00894624101474774,0.15751596182775043,0.0
0.06115142239945202,0.008911104072463998,0.15749021261813792,0.0
0.06116966142292755,0.008919687142334836,0.15747143715279546,0.0
0.06117153896946179,0.008837611536694948,0.157452661687453,0.0
0.06115383638785319,0.008870334490577518,0.15747009604812814,0.0
0.06115249528318587,0.008894206153655786,0.15751649826961736,0.0
0.06116456522519174,0.008823395827221373,0.15746070831545692,0.0
0.06115678681812129,0.008861214978839753,0.15745078414091876,0.0
0.06114578975984928,0.008880258665115675,0.1574867257460029,0.0
0.061162151236790564,0.008897961246724278,0.15749074906000485,0.0
0.06116054191118978,0.008871675595244837,0.15745078414091876,0.0
0.061168052097326765,0.008899034130458132,0.15744139640824753,0.0
0.061163760562391346,0.008885623083784948,0.15744810193158412,0.0
0.0611559821553209,0.008943022363546176,0.15744112818731407,0.0
0.06116456522519174,0.008943827026346567,0.15742852180344127,0.0
0.0611707343066614,0.008926124444737964,0.15741028277996574,0.0
0.06116349234145788,0.008923442235403327,0.1574298629081086,0.0
0.0611559821553209,0.008899838793258523,0.15740599124503032,0.0
0.06118199958586688,0.008884550200051093,0.15740143148916144,0.0
0.061200775051209334,0.008871675595244837,0.15738507001222016,0.0
0.06117851271373185,0.00886684761844249,0.1573995539426272,0.0
0.06113801135277883,0.00885236368803545,0.15739606707049217,0.0
0.0611471308645166,0.008871675595244837,0.15741564719863502,0.0
0.0611559821553209,0.00886094675790629,0.15739043443088943,0.0
0.06116054191118978,0.00885236368803545,0.15736790387247848,0.0
0.061152763504119335,0.008897693025790814,0.15736280767474267,0.0
0.061164297004258274,0.008906544316595115,0.15737407295394815,0.0
0.061169393201994084,0.00890252100259316,0.15738346068661938,0.0
0.06117851271373185,0.008817226745751708,0.15737031786087965,0.0
0.06116054191118978,0.008802742815344669,0.15732284275565658,0.0
0.061147667306383525,0.008843512397231149,0.157386142895954,0.0
0.061151958841318944,0.008829296687757573,0.15737165896554697,0.0
0.061142571108647716,0.008869798048710591,0.15737058608181312,0.0
0.06113988889931308,0.008940071933278075,0.15737997381448435,0.0
0.061135329143444196,0.008852095467101986,0.15738265602381898,0.0
0.06115678681812129,0.008822859385354445,0.1573810466982182,0.0
0.061176098725330676,0.008886964188452267,0.1573603936863415,0.0
0.061155713934387436,0.00888428197911763,0.15737031786087965,0.0
0.06115732325998822,0.00888508664191802,0.15737621872141586,0.0
0.061175294062530285,0.008890719281520758,0.15735851613980725,0.0
0.06117261185319565,0.008862824304440535,0.15736146657007535,0.0
0.06118360891146766,0.008818031408552099,0.15736763565154502,0.0
0.06119701995814084,0.008825273373755618,0.157327134290592,0.0
0.061208017016412854,0.008875698909246792,0.15731989232538848,0.0
0.06118655934173576,0.00886175142070668,0.15732364741845697,0.0
0.06118816866733654,0.008829564908691037,0.15732847539525932,0.0
0.061176098725330676,0.008829296687757573,0.1573418864419325,0.0
0.06116536988799213,0.008873553141779083,0.15735556570953915,0.0
0.06118360891146766,0.008885891304718412,0.15735100595367027,0.0
0.06117878093466531,0.008843244176297685,0.1573477873024687,0.0
0.061178244492798385,0.008796037292008077,0.1573153325695196,0.0
0.061173952957862966,0.008816153862017853,0.15731291858111843,0.0
0.06115142239945202,0.00874534353558344,0.15729628888324368,0.0
0.06117931737653224,0.008775652501064837,0.1572820731737701,0.0
0.06118790044640308,0.008838684420428802,0.1572917291273748,0.0
0.06119755640000777,0.008848608594966959,0.1573145279067192,0.0
0.06118387713240112,0.008750171512385786,0.15729333845297558,0.0
0.061192191981338497,0.008803279257211596,0.15725498285949027,0.0
0.061179585597465704,0.008792013978006122,0.15725417819668988,0.0
0.06118280424866727,0.008820713617886736,0.15726678458056267,0.0
0.06121204033041481,0.008841366629763439,0.15727509942950005,0.0
0.061213917876949055,0.008852900129902377,0.15725605574322413,0.0
0.061191387318538105,0.00883412466455992,0.15727751341790122,0.0
0.061179049155598776,0.008870602711510982,0.157238621382549,0.0
0.06119836106280816,0.008878649339514893,0.1572356709522809,0.0
0.06120479836521129,0.008843244176297685,0.15723728027788167,0.0
0.06120935812108017,0.008848340374033495,0.15726329770842765,0.0
0.06120828523734632,0.008837611536694948,0.1572466680105529,0.0
0.06121660008628369,0.008796841954808468,0.15725203242922217,0.0
0.06118655934173576,0.00878235802440143,0.15727429476669966,0.0
0.061202920818677044,0.00883412466455992,0.1572909244645744,0.0
0.06118816866733654,0.008778334710399474,0.15723003831267815,0.0
0.061197824620941234,0.008781016919734111,0.15723137941734547,0.0
0.06118387713240112,0.008773238512663664,0.15723540273134742,0.0
0.06118816866733654,0.008777798268532547,0.1572415718128171,0.0
0.06116697921359291,0.008752317279853495,0.15723218408014586,0.0
0.06118897333013693,0.00878021225693372,0.15726195660376033,0.0
0.06120828523734632,0.008770288082395564,0.15724559512681904,0.0
0.06121016278388056,0.00878530845466953,0.157249618440821,0.0
0.06120265259774358,0.008763850779992435,0.15722386923120849,0.0
0.06121204033041481,0.0088268826993564,0.1572281607661439,0.0
0.06121794119095101,0.008811862327082434,0.1572075077542672,0.0
0.061201579714009725,0.008783699129068748,0.15720777597520066,0.0
0.061201579714009725,0.00881883607135249,0.15724559512681904,0.0
0.06120479836521129,0.008808107234013943,0.15724720445241983,0.0
0.06121499076068291,0.008819372513219417,0.15726839390616346,0.0
0.061216868307217155,0.008762509675325117,0.15722762432427698,0.0
0.06122732892362224,0.008750707954252713,0.15723352518481318,0.0
0.061201579714009725,0.008780480477867184,0.15725444641762334,0.0
0.06123564377255961,0.008814812757350535,0.15723728027788167,0.0
0.06120935812108017,0.008808107234013943,0.1572260149986762,0.0
0.061193533086005815,0.008779139373199865,0.15724988666175446,0.0
0.06121713652815062,0.008763046117192044,0.15728100029003625,0.0
0.06121928229561833,0.008758754582256625,0.15725310531295603,0.0
0.06122518315615453,0.00876197323345819,0.15722655144054312,0.0
0.06123376622602537,0.008787186001203776,0.15725203242922217,0.0
0.06122250094681989,0.008800060606010032,0.1572740265457662,0.0
0.06122035517935218,0.008774311396397519,0.15726088372002647,0.0
0.061249859482033195,0.008797914838542323,0.15723352518481318,0.0
0.06125844255190403,0.00877806648946601,0.1572348662894805,0.0
0.061224110272420675,0.008822054722554054,0.1572214552428073,0.0
0.06122947469108995,0.008825273373755618,0.1572193094753396,0.0
0.06123966708656157,0.008829564908691037,0.1572067030914668,0.0
0.061247445493632015,0.008864701850974781,0.15722118702187385,0.0
0.06126407519150677,0.008830906013358356,0.1572185048125392,0.0
0.06125522390070247,0.008811862327082434,0.15723379340574664,0.0
0.06124073997029542,0.008730591384242937,0.15720428910306564,0.0
0.061267293842708334,0.008772433849863273,0.15722950187081122,0.0
0.061262197644972524,0.008808375454947406,0.15724800911522022,0.0
0.06125468745883554,0.008794696187340759,0.1572252103358758,0.0
0.06124181285402928,0.008785040233736066,0.15725364175482295,0.0
0.06123859420282771,0.008804620361878915,0.1572429129174844,0.0
0.06124073997029542,0.008756340593855452,0.1572643705921615,0.0
0.06123242512135805,0.008745611756516903,0.1572474726733533,0.0
0.06125951543563789,0.008760095686923944,0.15724130359188362,0.0
0.06126541629617409,0.00873515114011182,0.15723137941734547,0.0
0.061257906110037105,0.008742124884381875,0.15724559512681904,0.0
0.06123913064469464,0.008731396047043328,0.15725069132455485,0.0
0.06123993530749503,0.008687676034888748,0.15728314605750396,0.0
0.06124851837736587,0.008702159965295787,0.15723084297547854,0.0
0.06124369040056352,0.008695186221025731,0.15722011413814,0.0
0.06120828523734632,0.008740783779714557,0.15725364175482295,0.0
0.06123242512135805,0.008797110175741932,0.15728556004590513,0.0
0.061246640830831624,0.008770288082395564,0.15727268544109888,0.0
0.061267293842708334,0.008717448558503217,0.15725364175482295,0.0
0.06126783028457526,0.008788527105871094,0.15726812568523,0.0
0.06124932304016627,0.008786649559336848,0.1572694667898973,0.0
0.06124261751682967,0.008741588442514948,0.15724264469655094,0.0
0.061268098505508725,0.00870242818622925,0.15721179928920262,0.0
0.06125522390070247,0.008726836291174446,0.1572340616266801,0.0
0.06126273408683945,0.008781553361601038,0.1572474726733533,0.0
0.061271048935776826,0.008816958524818244,0.15726302948749418,0.0
0.061265148075240625,0.00878530845466953,0.15722681966147659,0.0
0.06124717727269855,0.008761168570657799,0.15722252812654117,0.0
0.0612216962840195,0.008750171512385786,0.15723808494068206,0.0
0.061246640830831624,0.008795232629207686,0.15722628321960966,0.0
0.06126648917990794,0.00875687703572238,0.15720428910306564,0.0
0.06127265826137761,0.008803279257211596,0.1572429129174844,0.0
0.06126675740084141,0.008818299629485563,0.15726490703402843,0.0
0.061273999366044926,0.008807302571213552,0.1572753676504335,0.0
0.06127265826137761,0.008752049058920032,0.1572348662894805,0.0
0.061268098505508725,0.008685798488354502,0.15726893034803038,0.0
0.061268098505508725,0.008747221082117685,0.15730996815085033,0.0
0.06127480402884532,0.008769215198661709,0.15728556004590513,0.0
0.06129089728485314,0.008738906233180311,0.1572761723132339,0.0
0.061317719378199506,0.008761436791591262,0.1572925337901752,0.0
0.06127694979631303,0.008725226965573664,0.1573212334300558,0.0
0.06128499642431694,0.00871181591890048,0.15732445208125737,0.0
0.06127668157537956,0.008722276535305563,0.15727509942950005,0.0
0.06126783028457526,0.00869733198849344,0.15729602066231022,0.0
0.06127990022658113,0.008792013978006122,0.15734966484900295,0.0
0.06129760280818973,0.00879845128040925,0.15734295932566636,0.0
0.06129599348258895,0.008733541814511038,0.1573359855813963,0.0
0.06127587691257917,0.008720667209704781,0.15734430043033368,0.0
0.06128875151738543,0.008779407594133329,0.15734537331406753,0.0
0.06127292648231107,0.008737028686646066,0.15735932080260764,0.0
0.06126541629617409,0.008728177395841764,0.1573145279067192,0.0
0.06128392354058308,0.008792013978006122,0.157308627046183,0.0
0.061272390040444144,0.008775652501064837,0.15733357159299513,0.0
0.06126648917990794,0.008742393105315339,0.1573204287672554,0.0
0.061267293842708334,0.008787186001203776,0.15732069698818887,0.0
0.06127507224977878,0.00872710451210791,0.1573043355112476,0.0
0.06128311887778269,0.008767337652127463,0.15732391563939044,0.0
0.06125951543563789,0.008757413477589307,0.15730111686004603,0.0
0.061273194703244535,0.008760632128790871,0.15731640545325346,0.0
0.06129384771512124,0.008771897407996346,0.15734000889539826,0.0
0.0612911655057866,0.008755804151988525,0.15735127417460373,0.0
0.06127802268004688,0.008779139373199865,0.15734215466286597,0.0
0.06129331127325431,0.008734882919178356,0.15734027711633172,0.0
0.06130564943619364,0.008742929547182266,0.15730192152284642,0.0
0.06129813925005666,0.00875687703572238,0.1573123821392515,0.0
0.06128660574991772,0.008772433849863273,0.15733249870926128,0.0
0.061299480354723976,0.008787722443070703,0.15732311097659005,0.0
0.061308868087395205,0.008750976175186177,0.1573056766159149,0.0
0.06130564943619364,0.008725495186507127,0.15731935588352156,0.0
0.061274535807911854,0.008742124884381875,0.1573056766159149,0.0
0.061287142191784647,0.008797914838542323,0.15730299440658027,0.0
0.06131208673859677,0.008762509675325117,0.15729521599950982,0.0
0.061314768947931406,0.008715302791035507,0.15732606140685815,0.0
0.061283387098716155,0.008736224023845674,0.15734725086060178,0.0
0.06125388279603515,0.008778602931332938,0.15737970559355088,0.0
0.06125441923790208,0.008715839232902435,0.15736817209341195,0.0
0.061265952738041016,0.008698136651293832,0.15736093012820843,0.0
0.06126917138924258,0.008768142314927854,0.15737246362834736,0.0
0.061260856540305206,0.008768410535861318,0.15735985724447457,0.0
0.06129009262205275,0.008807839013080479,0.1573692449771458,0.0
0.06128070488938152,0.008781285140667575,0.15735288350020452,0.0
0.06126997605204297,0.008765191884659754,0.15735046951180334,0.0
0.061269439610176044,0.008789868210538412,0.15734376398846675,0.0
0.061276145133512636,0.008778602931332938,0.15733920423259787,0.0
0.06129036084298621,0.00878316268720182,0.15737246362834736,0.0
0.061297334587256266,0.008674533209149028,0.15737836448888357,0.0
0.06128365531964962,0.00879335508267344,0.15739553062862524,0.0
0.06126997605204297,0.008755267710121598,0.15737487761674854,0.0
0.06127721801724649,0.008738638012246848,0.15737273184928083,0.0
0.061279095563780736,0.008725495186507127,0.1574025043728953,0.0
0.061254955679769005,0.008720667209704781,0.15740116326822798,0.0
0.06126407519150677,0.008726031628374055,0.15740947811716535,0.0
0.061274535807911854,0.00876787409399439,0.15739231197742368,0.0
0.0612852646452504,0.008765191884659754,0.1573869475587544,0.0
0.061289287959252356,0.008714229907301653,0.15737353651208122,0.0
0.06131745115726604,0.008804620361878915,0.15739713995422602,0.0
0.06128177777311537,0.008768410535861318,0.15741698830330234,0.0
0.061265952738041016,0.00873729690757953,0.15742369382663893,0.0
0.06127882734284727,0.008701891744362323,0.15742047517543736,0.0
0.0612793637847142,0.008734882919178356,0.15743925064077982,0.0
0.06127212181951068,0.008735419361045283,0.15743361800117708,0.0
0.061265148075240625,0.008689821802356458,0.15740733234969764,0.0
0.06125897899377096,0.008697868430360368,0.15742262094290507,0.0
0.06129089728485314,0.008710206593299697,0.15741028277996574,0.0
0.06129009262205275,0.008702159965295787,0.1574025043728953,0.0
0.06128016844751459,0.008746416419317294,0.15741162388463306,0.0
0.061271048935776826,0.008713157023567798,0.1573995539426272,0.0
0.0612646116333737,0.008739979116914166,0.15741028277996574,0.0
0.061273999366044926,0.008726031628374055,0.15739231197742368,0.0
0.0613000167965909,0.008749903291452322,0.15741108744276613,0.0
0.06129545704072202,0.008669705232346682,0.15742557137317317,0.0
0.06126273408683945,0.00871691211663629,0.15745078414091876,0.0
0.0612852646452504,0.008779944036000256,0.15747465580399703,0.0
0.0612823142149823,0.008709938372366234,0.15742262094290507,0.0
0.06129465237792163,0.008695990883826122,0.15742557137317317,0.0
0.06128606930805079,0.00869438155822534,0.15745212524558608,0.0
0.06126541629617409,0.008664072592743944,0.15745319812931993,0.0
0.06125602856350286,0.008698136651293832,0.15741859762890312,0.0
0.06127990022658113,0.008719326105037463,0.15739848105889334,0.0
0.061272390040444144,0.008693040453558022,0.15743013112904206,0.0
0.061265952738041016,0.008677751860350592,0.1574298629081086,0.0
0.06129760280818973,0.008667827685812436,0.1574151107567681,0.0
0.06127373114511146,0.008585483859239084,0.15741162388463306,0.0
0.061273999366044926,0.008677751860350592,0.15744032352451368,0.0
0.061277486238179954,0.008672923883548246,0.15742664425690703,0.0
0.061285532866183864,0.00865495308100618,0.15739553062862524,0.0
0.06127480402884532,0.008659512836875062,0.15741618364050194,0.0
0.061279095563780736,0.008641005592466068,0.1574312040127759,0.0
0.06126836672644219,0.008673728546348637,0.1574172565242358,0.0
0.061268098505508725,0.008654416639139252,0.15739338486115753,0.0
0.061295725261655484,0.008654416639139252,0.15738855688435519,0.0
0.061276145133512636,0.008671582778880927,0.1574076005706311,0.0
0.06124637260989816,0.008676947197550201,0.15741189210556653,0.0
0.06126863494737565,0.008678020081284056,0.15740304081476222,0.0
0.0612882150755185,0.008706987942098133,0.15737058608181312,0.0
0.061265148075240625,0.008654416639139252,0.15737943737261742,0.0
0.06124181285402928,0.008671850999814391,0.15738828866342172,0.0
0.06123242512135805,0.00869223579075763,0.15739392130302446,0.0
0.061241544633095814,0.008659781057808525,0.1573831924656859,0.0
0.06123778954002732,0.008635104731929867,0.15740089504729451,0.0
0.06123108401669073,0.008652539092605006,0.1574062594659638,0.0
0.061249054819232804,0.00868928536048953,0.15741993873357044,0.0
0.06124261751682967,0.008676410755683274,0.157423157384772,0.0
0.06124288573776313,0.008655489522873107,0.15742932646624166,0.0
0.06124556794709777,0.008697063767559977,0.15748028844359976,0.0
0.061260051877504815,0.008667827685812436,0.15743925064077982,0.0
0.06128204599404884,0.008695990883826122,0.1574092098962319,0.0
0.06123698487722693,0.00870242818622925,0.15742798536157435,0.0
0.0612305475748238,0.008636177615663721,0.15743254511744323,0.0
0.06123618021442654,0.008657367069407352,0.15743603198957826,0.0
0.061250664144833586,0.008702696407162714,0.15743656843144518,0.0
0.06125951543563789,0.008667023023012045,0.15740518658222993,0.0
0.06125602856350286,0.008642346697133386,0.1573974081751595,0.0
0.0612305475748238,0.008642346697133386,0.15741189210556653,0.0
0.0612646116333737,0.008645833569268414,0.15741296498930038,0.0
0.06126407519150677,0.008620889022456292,0.1573877522215548,0.0
0.06125736966817018,0.00862437589459132,0.15738667933782094,0.0
0.06124288573776313,0.008634836510996403,0.157386142895954,0.0
0.061227060702688775,0.00863242252259523,0.15740518658222993,0.0
0.06123457088882576,0.008614183499119698,0.15739687173329256,0.0
0.061243153958696596,0.008572609254432827,0.15741967051263697,0.0
0.0612275971445557,0.008670778116080536,0.1574105510008992,0.0
0.06121713652815062,0.008659781057808525,0.1573957988495587,0.0
0.06120479836521129,0.008616329266587407,0.15737621872141586,0.0
0.061234302667892294,0.00868123873248562,0.15744354217571524,0.0
0.061229206470156484,0.008725226965573664,0.15741591541956848,0.0
0.06122518315615453,0.008709938372366234,0.1574210116173043,0.0
0.061217672970017546,0.008649320441403442,0.15744032352451368,0.0
0.06124369040056352,0.008568854161364336,0.15743522732677787,0.0
0.06123778954002732,0.008686603151154893,0.15747733801333166,0.0
0.06121043100481403,0.00874829396585154,0.15748136132733362,0.0
0.061218209411884474,0.00874319776811573,0.15745319812931993,0.0
0.061227060702688775,0.008709401930499306,0.15744193285011446,0.0
0.06122518315615453,0.008719326105037463,0.15746929138532775,0.0
0.06123162045855766,0.008708060825831988,0.1574379095361125,0.0
0.06124288573776313,0.008683920941820257,0.15744541972224949,0.0
0.06125254169136783,0.008669705232346682,0.157452661687453,0.0
0.06120774879547939,0.008694918000092268,0.1574652680713258,0.0
0.061229206470156484,0.008767069431194,0.15749638169960758,0.0
0.061226256039888384,0.00869652732569305,0.1574349591058444,0.0
0.06121552720254984,0.008704842174630424,0.1574290582453082,0.0
0.06122652426082185,0.008688212476755676,0.15743630021051172,0.0
0.06122250094681989,0.008676410755683274,0.15744354217571524,0.0
0.061223305609620284,0.008664072592743944,0.15743308155931016,0.0
0.06123778954002732,0.008628399208593275,0.1573759505004824,0.0
0.061241008191228886,0.008657098848473889,0.1574113556636996,0.0
0.06121499076068291,0.008661390383409307,0.15741967051263697,0.0
0.06122089162121911,0.008704037511830033,0.15746044009452345,0.0
0.06122142806308604,0.008616329266587407,0.15742503493130625,0.0
0.061221159842152574,0.008554370230957297,0.1574253031522397,0.0
0.06122384205148721,0.008646101790201878,0.15743361800117708,0.0
0.06122518315615453,0.008608282638583497,0.15742637603597356,0.0
0.061227865365489166,0.008698136651293832,0.15743227689650977,0.0
0.06121847763281794,0.008659244615941598,0.15744863837345105,0.0
0.061206944132679,0.008656562406606961,0.15743254511744323,0.0
0.061227060702688775,0.008693845116358413,0.15743093579184245,0.0
0.061249859482033195,0.00865495308100618,0.15741296498930038,0.0
0.061250664144833586,0.008632958964462157,0.1573944577448914,0.0
0.0612128449932152,0.008630813196994448,0.15740277259382876,0.0
0.06123564377255961,0.008628130987659811,0.15738292424475245,0.0
0.061236448435360004,0.008619011475922046,0.15736817209341195,0.0
0.06124073997029542,0.008606673312982715,0.15739311664022407,0.0
0.061226256039888384,0.008620352580589364,0.15738641111688748,0.0
0.061226256039888384,0.008628399208593275,0.15737782804701664,0.0
0.06121230855134827,0.008620352580589364,0.15739848105889334,0.0
0.06123027935389034,0.008658976395008134,0.15737943737261742,0.0
0.061217672970017546,0.008623303010857465,0.1573670992096781,0.0
0.06120184793494319,0.008641273813399531,0.1573633441166096,0.0
0.06121445431881598,0.008649588662336906,0.15738828866342172,0.0
0.06122223272588643,0.00866380437181048,0.15740277259382876,0.0
0.06120613946987861,0.008624107673657856,0.15738507001222016,0.0
0.06118495001613498,0.008638323383131431,0.15736978141901273,0.0
0.0612039937024109,0.00864851577860305,0.15738265602381898,0.0
0.06121847763281794,0.00859326226630953,0.1573552974886057,0.0
0.06123483910975922,0.008638591604064895,0.15734805552340217,0.0
0.06121445431881598,0.008599967789646123,0.15729709354604407,0.0
0.06123671665629347,0.008602113557113832,0.15732069698818887,0.0
0.06121713652815062,0.008588702510440648,0.15732311097659005,0.0
0.061210967446680954,0.008576096126567855,0.15731586901138653,0.0
0.06118092670213302,0.008587897847640257,0.15733625380232977,0.0
0.06119031443480425,0.008617133929387798,0.15738131491915167,0.0
0.06122250094681989,0.008620352580589364,0.15739418952395792,0.0
0.061223305609620284,0.008582801649904447,0.15738453357035323,0.0
0.06120506658614475,0.0086200843596559,0.15738962976808904,0.0
0.06119970216747548,0.008632958964462157,0.1574092098962319,0.0
0.06121633186535023,0.008592189382575676,0.1574084052334315,0.0
0.06121633186535023,0.008587629626706794,0.15739982216356066,0.0
0.06121150388854788,0.008613110615385843,0.15741269676836692,0.0
0.061202920818677044,0.008633495406329085,0.15739848105889334,0.0
0.061213917876949055,0.008608014417650033,0.15736307589567614,0.0
0.061210967446680954,0.008572877475366291,0.1573322304883278,0.0
0.061216063644416764,0.008591921161642212,0.15733276693019474,0.0
0.06121043100481403,0.008633495406329085,0.1573204287672554,0.0
0.06120533480707822,0.008589775394174503,0.15731399146485228,0.0
0.06122571959802146,0.008553297347223442,0.15731855122072116,0.0
0.061208821679213245,0.00856188041709428,0.15731265036018496,0.0
0.06119246020227196,0.008565367289229308,0.15728851047617323,0.0
0.061201579714009725,0.008620889022456292,0.15730192152284642,0.0
0.061208821679213245,0.008576632568434783,0.15730621305778184,0.0
0.061213113214148664,0.008644224243667632,0.15731184569738457,0.0
0.06120560302801168,0.008629740313260593,0.15730379906938066,0.0
0.061231352237624194,0.008514673532804672,0.15726919856896385,0.0
0.06123188867949112,0.008564294405495453,0.1572319158592124,0.0
0.06120345726054397,0.008642883139000314,0.15731265036018496,0.0
0.06118307246960073,0.008646638232068805,0.15733035294179357,0.0
0.06120828523734632,0.008710743035166625,0.1573397406744648,0.0
0.06120935812108017,0.008645028906468023,0.15729575244137675,0.0
0.061226256039888384,0.008639128045931822,0.15729628888324368,0.0
0.06121552720254984,0.008623034789924001,0.15730192152284642,0.0
0.06121230855134827,0.008670509895147073,0.1573131868020519,0.0
0.06122518315615453,0.008645028906468023,0.15730031219724563,0.0
0.061227060702688775,0.008606405092049251,0.15729494777857636,0.0
0.06122008695841872,0.008588702510440648,0.15730004397631217,0.0
0.061223305609620284,0.008623839452724392,0.15730299440658027,0.0
0.06119970216747548,0.008621693685256683,0.15730406729031413,0.0
0.06121364965601559,0.008618475034055119,0.15729655710417714,0.0
0.06121445431881598,0.008569658824164727,0.1573064812787153,0.0
0.06121552720254984,0.008657367069407352,0.15731989232538848,0.0
0.061217672970017546,0.008673460325415173,0.15733732668606362,0.0
0.061235107330692685,0.008627058103925956,0.1573027261856468,0.0
0.06121955051655179,0.008611501289785061,0.1572887786971067,0.0
0.06119594707440699,0.008621425464323219,0.15730379906938066,0.0
0.06122437849335414,0.008632690743528694,0.1573153325695196,0.0
0.0612275971445557,0.008573145696299755,0.15728100029003625,0.0
0.061237253098160395,0.008628935650460202,0.15732606140685815,0.0
0.0612039937024109,0.008611501289785061,0.15734537331406753,0.0
0.061192728423205424,0.00865575774380657,0.15731935588352156,0.0
0.061221159842152574,0.008617402150321264,0.1573027261856468,0.0
0.06122652426082185,0.008614988161920089,0.15728824225523977,0.0
0.06120265259774358,0.008648247557669587,0.15729119268550787,0.0
0.061182536027733804,0.008617402150321264,0.15728100029003625,0.0
0.06119460596973967,0.008618743254988582,0.1572563239641576,0.0
0.061206944132679,0.00859540803377724,0.15722252812654117,0.0
0.06119970216747548,0.008637250499397576,0.15722789254521044,0.0
0.06118199958586688,0.008601308894313441,0.15723325696387971,0.0
0.06118870510920347,0.008593530487242994,0.15721367683573687,0.0
0.06118199958586688,0.008571804591632436,0.1571809538818543,0.0
0.061181194923066486,0.00864341958086724,0.1572260149986762,0.0
0.061179585597465704,0.008668632348612827,0.1572319158592124,0.0
0.061185486458001904,0.008632958964462157,0.157190609835459,0.0
0.061180390260266095,0.008611769510718525,0.1572104581845353,0.0
0.0611707343066614,0.008623571231790928,0.15722118702187385,0.0
0.06116402878332481,0.008634300069129476,0.15722360101027502,0.0
0.06119031443480425,0.008611501289785061,0.15721233573106955,0.0
0.06119406952787274,0.008583338091771375,0.15719436492852748,0.0
0.06118280424866727,0.008585483859239084,0.15721770014973882,0.0
0.06116966142292755,0.008603186440847687,0.1572260149986762,0.0
0.06118012203933263,0.008628130987659811,0.15721582260320457,0.0
0.061173148295062575,0.008564294405495453,0.15719302382386016,0.0
0.061185486458001904,0.008580655882436738,0.15720777597520066,0.0
0.061181194923066486,0.008692772232624558,0.15721099462640223,0.0
0.06119299664413889,0.00866380437181048,0.15719731535879558,0.0
0.061201579714009725,0.008614451720053162,0.15718819584705782,0.0
0.0611707343066614,0.008562416858961207,0.15718202676558815,0.0
0.061160810132123246,0.008534790102814448,0.15718256320745508,0.0
0.06116536988799213,0.008618743254988582,0.15718846406799128,0.0
0.061192191981338497,0.008667291243945508,0.1571949013703944,0.0
0.06120774879547939,0.008636982278464113,0.15718202676558815,0.0
0.06118280424866727,0.008633763627262548,0.15715091313730636,0.0
0.06118950977200386,0.008625448778325174,0.15715413178850793,0.0
0.06120908990014671,0.008630544976060984,0.15715520467224178,0.0
0.06122035517935218,0.008627594545792884,0.15717290725385039,0.0
0.061212576772281736,0.008602918219914223,0.15715520467224178,0.0
0.06119541063254006,0.008598626684978804,0.15715118135823983,0.0
0.06121230855134827,0.008573413917233218,0.1571506449163729,0.0
0.06120426192334436,0.008564562626428917,0.1571586915443768,0.0
0.061208017016412854,0.008563221521761599,0.15717961277718698,0.0
0.06119621529534045,0.008559466428693107,0.15717022504451575,0.0
0.06120050683027587,0.0085691223822978,0.15714823092797173,0.0
0.06119165553947157,0.008542568509884895,0.1571307965672966,0.0
0.061187632225469614,0.008568049498563945,0.1571321376719639,0.0
0.061168052097326765,0.008561343975227353,0.15713830675343357,0.0
0.061176098725330676,0.00859326226630953,0.15717183437011653,0.0
0.061191387318538105,0.008659781057808525,0.15713026012542966,0.0
0.0611980928418747,0.008620889022456292,0.1571299919044962,0.0
0.061192728423205424,0.00860855085951696,0.15712167705555882,0.0
0.06120613946987861,0.008603186440847687,0.15711872662529072,0.0
0.06117770805093146,0.008555174893757688,0.157090563427277,0.0
0.06117475762066336,0.008598090243111877,0.1571136304275549,0.0
0.061182536027733804,0.008596212696577631,0.1571106799972868,0.0
0.06117046608572794,0.008535862986548303,0.15709914649714785,0.0
0.061183340690534195,0.008629740313260593,0.15711255754382106,0.0
0.06119246020227196,0.008658439953141207,0.15713830675343357,0.0
0.06118816866733654,0.008648783999536514,0.1571329423347643,0.0
0.06119165553947157,0.008637250499397576,0.15712730969516156,0.0
0.061193533086005815,0.008606673312982715,0.15714313473023592,0.0
0.061184145353334586,0.008590848277908358,0.15717693056785234,0.0
0.061183340690534195,0.008623571231790928,0.15718551363772318,0.0
0.06119192376040503,0.008661926825276235,0.15721796837067228,0.0
0.06119970216747548,0.008610964847918134,0.1571868547423905,0.0
0.06119621529534045,0.008545250719219532,0.15715761866064296,0.0
0.0612010432721428,0.008557588882158861,0.15717451657945117,0.0
0.061190582655737714,0.008661122162475844,0.15718846406799128,0.0
0.061187632225469614,0.008659781057808525,0.15717156614918307,0.0
0.06119675173720738,0.008620889022456292,0.15717558946318502,0.0
0.06117341651599604,0.008575023242834,0.15718149032372122,0.0
0.061168856760127156,0.008619011475922046,0.15718578185865664,0.0
0.06117931737653224,0.008579582998702883,0.1571734436957173,0.0
0.06118682756266922,0.008576632568434783,0.15715627755597564,0.0
0.06118468179520151,0.008558661765892716,0.157190609835459,0.0
0.06116134657399017,0.008581996987104056,0.1571890005098582,0.0
0.06117931737653224,0.008671582778880927,0.15721904125440614,0.0
0.06120506658614475,0.008621693685256683,0.15719034161452553,0.0
0.06118870510920347,0.008609623743250815,0.1571986564634629,0.0
0.06116966142292755,0.008620620801522828,0.1572171637078719,0.0
0.061154104608786654,0.008612037731651988,0.15720911707986798,0.0
0.06117797627186492,0.00862518055739171,0.15719463314946094,0.0
0.061177439829997994,0.00861364705725277,0.15720992174266837,0.0
0.061176098725330676,0.008609623743250815,0.15722252812654117,0.0
0.06117475762066336,0.008614988161920089,0.1572096535217349,0.0
0.06119487419067313,0.008628935650460202,0.15719838824252944,0.0
0.06121552720254984,0.008636177615663721,0.15719329204479363,0.0
0.06119004621387079,0.008638859824998358,0.15719516959132787,0.0
0.06114498509704889,0.008608819080450424,0.1572289654289443,0.0
0.06115946902745593,0.008584679196438693,0.15721796837067228,0.0
0.06119621529534045,0.008568585940430872,0.15719382848666055,0.0
0.061199433946542016,0.00860560042924886,0.1572037526611987,0.0
0.061168856760127156,0.008581460545237129,0.15721501794040418,0.0
0.06119004621387079,0.008622498348057074,0.15723835316161552,0.0
0.06120426192334436,0.008524865928276292,0.1571957060331948,0.0
0.06120533480707822,0.008585483859239084,0.15719731535879558,0.0
0.06118468179520151,0.008621693685256683,0.1572104581845353,0.0
0.061176098725330676,0.008536131207481767,0.15717290725385039,0.0
0.061194337748806206,0.00858521563830562,0.15718658652145703,0.0
0.06120211615587665,0.008557857103092325,0.15721287217293647,0.0
0.06119541063254006,0.008574486800967073,0.15722494211494234,0.0
0.061197824620941234,0.008586824963906402,0.15723540273134742,0.0
0.06117341651599604,0.0085691223822978,0.1572155543822711,0.0
0.06116617455079252,0.008528621021344784,0.15721501794040418,0.0
0.0611677838763933,0.008578510114969028,0.1572096535217349,0.0
0.06118092670213302,0.008616329266587407,0.1572244056730754,0.0
0.061189241551070396,0.008552492684423051,0.15717853989345312,0.0
0.06118065848119956,0.00855463845189076,0.15714286650930245,0.0
0.061193533086005815,0.00864046915059914,0.15717827167251966,0.0
0.06117985381839917,0.00862947209232713,0.1571758576841185,0.0
0.06117422117879643,0.008604259324581542,0.15716700639331418,0.0
0.06118065848119956,0.008569658824164727,0.1571624466374453,0.0
0.061176098725330676,0.008530766788812493,0.15714796270703826,0.0
0.06117931737653224,0.00859835846404534,0.15714420761396977,0.0
0.06120426192334436,0.00856188041709428,0.15712140883462536,0.0
0.06118092670213302,0.008559466428693107,0.15711899484622419,0.0
0.06115812792278861,0.008539886300550258,0.15713106478823005,0.0
0.06117475762066336,0.008636714057530649,0.1571876594051909,0.0
0.061177439829997994,0.008616865708454335,0.15714662160237095,0.0
0.06118226780680034,0.008526743474810538,0.1571299919044962,0.0
0.061196483516273915,0.008614183499119698,0.1571763941259854,0.0
0.06118226780680034,0.00865066154607076,0.1571949013703944,0.0
0.061192728423205424,0.008623839452724392,0.1571758576841185,0.0
0.06119299664413889,0.008601308894313441,0.15716593350958033,0.0
0.06118655934173576,0.008561343975227353,0.15718041743998737,0.0
0.06116536988799213,0.008576096126567855,0.15721179928920262,0.0
0.06118816866733654,0.008590580056974894,0.15722950187081122,0.0
0.06120506658614475,0.008541227405217577,0.15720321621933178,0.0
0.061196483516273915,0.008527816358544393,0.15721206751013608,0.0
0.06118441357426805,0.008529693905078638,0.1571898051726586,0.0
0.061176098725330676,0.0085122595444035,0.15719114627732592,0.0
0.06116966142292755,0.008558661765892716,0.1572008022309306,0.0
0.061162955899590955,0.008547664707620705,0.15720938530080145,0.0
0.06116751565545984,0.008574755021900537,0.1571898051726586,0.0
0.06117502584159682,0.008543373172685286,0.15717558946318502,0.0
0.061173952957862966,0.008561343975227353,0.1571839043121224,0.0
0.06118950977200386,0.008581728766170593,0.15721662726600497,0.0
0.061179585597465704,0.008544177835485677,0.15721448149853726,0.0
0.06115812792278861,0.008533717219080594,0.15718926873079167,0.0
0.06116912498106062,0.00857716901030171,0.15725793328975837,0.0
0.061162151236790564,0.008444131427303722,0.157260615499093,0.0
0.06116671099265945,0.008461029346111934,0.15722413745214195,0.0
0.061162151236790564,0.008524597707342828,0.15721153106826916,0.0
0.061176098725330676,0.008551419800689197,0.15722950187081122,0.0
0.061179585597465704,0.008537472312149085,0.15722413745214195,0.0
0.061180390260266095,0.008500994265198025,0.15723379340574664,0.0
0.06114820374825045,0.008474172171851655,0.15722547855680927,0.0
0.061158664364655536,0.008511186660669644,0.15724425402215172,0.0
0.06116912498106062,0.008513600649070818,0.15724264469655094,0.0
0.06117690338813107,0.008531571451612884,0.15726383415029457,0.0
0.06115946902745593,0.008532376114413275,0.1572651752549619,0.0
0.06114927663198431,0.008532376114413275,0.15728636470870552,0.0
0.06116161479492364,0.008522451939875119,0.15729521599950982,0.0
0.06115034951571816,0.00847095352065009,0.1573123821392515,0.0
0.06115839614372207,0.008513600649070818,0.15731184569738457,0.0
0.06116322412052442,0.00853130323067942,0.15731372324391882,0.0
0.06116992964386101,0.008534521881880985,0.15730111686004603,0.0
0.06117341651599604,0.008522988381742046,0.15731077281365072,0.0
0.06115946902745593,0.008508236230401544,0.1573145279067192,0.0
0.06116349234145788,0.00848463278825674,0.15731050459271725,0.0
0.061168052097326765,0.008514137090937745,0.1573330351511282,0.0
0.06115517749252051,0.00849482518372836,0.15734805552340217,0.0
0.06113291515504302,0.008478731927720537,0.15733196226739435,0.0
0.061149813073851235,0.00852325660267551,0.1573241838603239,0.0
0.0611736847369295,0.008505285800133443,0.15732552496499122,0.0
0.061179585597465704,0.008479268369587465,0.15729441133670943,0.0
0.06117556228346375,0.008476317939319364,0.15730782238338262,0.0
0.061178244492798385,0.008529157463211711,0.1573279389533924,0.0
0.061177439829997994,0.008547664707620705,0.157308627046183,0.0
0.06118816866733654,0.008498848497730315,0.15728985158084055,0.0
0.06118790044640308,0.008505554021066907,0.157308627046183,0.0
0.06116268767865749,0.00848248702078903,0.157297629987911,0.0
0.0611707343066614,0.008498312055863388,0.15732472030219083,0.0
0.061187632225469614,0.008498312055863388,0.15732176987192273,0.0
0.061168856760127156,0.008484364567323276,0.15731050459271725,0.0
0.06114203466678079,0.008496434509329142,0.15731399146485228,0.0
0.0611441804342485,0.008493484079061041,0.15732954827899318,0.0
0.061147667306383525,0.008492142974393723,0.15734832374433563,0.0
0.061173952957862966,0.008471221741583554,0.15732767073245893,0.0
0.06115946902745593,0.008459151799577689,0.1573005804181791,0.0
0.061132378713176096,0.0084701488578497,0.1573397406744648,0.0
0.061144716876115425,0.008451373392507242,0.1573300847208601,0.0
0.06115544571345397,0.008451105171573778,0.15734000889539826,0.0
0.061134524480643805,0.008506895125734226,0.15732150165098926,0.0
0.06113130582944224,0.008515478195605063,0.1573507377327368,0.0
0.06115222706225241,0.00853854519588294,0.15733786312793055,0.0
0.06113908423651269,0.008511723102536572,0.1573405453372652,0.0
0.061118431224635984,0.0085181604049397,0.15732847539525932,0.0
0.061119235887436375,0.008509577335068862,0.15732659784872507,0.0
0.06111360324783364,0.008433670810898639,0.15732606140685815,0.0
0.06111253036409978,0.008456737811176515,0.15732230631378966,0.0
0.0611197723293033,0.008521647277074728,0.1573300847208601,0.0
0.06110287441049509,0.008513600649070818,0.1573426911047329,0.0
0.061098046433692745,0.008493484079061041,0.15735341994207144,0.0
0.061109043491964755,0.008477122602119755,0.1573418864419325,0.0
0.06110072864302738,0.008403361845417243,0.15730835882524954,0.0
0.06109697354995889,0.008503140032665734,0.15731506434858614,0.0
0.06109134091035615,0.008493752299994505,0.15729414311577597,0.0
0.06107739342181604,0.008452178055307633,0.15727349010389927,0.0
0.06108114851488453,0.008452446276241097,0.15729226556924172,0.0
0.061078466305549896,0.008476317939319364,0.15732069698818887,0.0
0.06110555661982973,0.008525134149209756,0.15732874361619278,0.0
0.061124332085172185,0.0085122595444035,0.15729038802270748,0.0
0.06110716594543051,0.00846076112517847,0.15727804985976815,0.0
0.06108222139861839,0.008463175113579644,0.1573115774764511,0.0
0.06107927096835029,0.008488119660391768,0.15731613723232,0.0
0.06108544004981995,0.008445204311037577,0.15730192152284642,0.0
0.061109848154765146,0.00850796800946808,0.15731372324391882,0.0
0.06110046042209392,0.008502603590798807,0.15729655710417714,0.0
0.061085708270753415,0.008527548137610929,0.1573405453372652,0.0
0.06108973158475537,0.008524329486409365,0.1573241838603239,0.0
0.06110448373609587,0.008484364567323276,0.1573064812787153,0.0
0.06110582484076319,0.0084760497183859,0.15731586901138653,0.0
0.0611020697476947,0.008495361625595287,0.15729709354604407,0.0
0.06108678115448727,0.008456201369309588,0.1572984346507114,0.0
0.06109107268942269,0.008404971171018025,0.15729038802270748,0.0
0.061075515875281795,0.0084132860199554,0.15729628888324368,0.0
0.061068273910078276,0.008487046776657913,0.15731265036018496,0.0
0.06108544004981995,0.008472026404383945,0.15731130925551765,0.0
0.06108409894515263,0.008430452159697075,0.1573005804181791,0.0
0.061083562503285706,0.00849267941626065,0.1573212334300558,0.0
0.061084903607953024,0.008484364567323276,0.15734886018620256,0.0
0.061109043491964755,0.00849697095119607,0.15733330337206167,0.0
0.06110716594543051,0.008499653160530706,0.15732981649992664,0.0
0.06110716594543051,0.008423746636360483,0.157286632929639,0.0
0.0610843671660861,0.008438767008634449,0.1572769769760343,0.0
0.06109241379409001,0.008528889242278247,0.1573389360116644,0.0
0.06109831465462621,0.008502335369865343,0.1573056766159149,0.0
0.06111306680596671,0.008497507393062997,0.15731801477885424,0.0
0.06110072864302738,0.008464247997313499,0.15733410803486206,0.0
0.06107927096835029,0.008469880636916236,0.15735690681420647,0.0
0.06108678115448727,0.008452982718108024,0.15732767073245893,0.0
0.0611138714687671,0.008473903950918191,0.15733732668606362,0.0
0.061103142631428554,0.008536935870282158,0.15734617797686792,0.0
0.061114944352500956,0.008518965067740091,0.15734403220940021,0.0
0.06110046042209392,0.008471221741583554,0.15733732668606362,0.0
0.06111253036409978,0.008513868870004281,0.15734537331406753,0.0
0.061110384596632074,0.008526475253877074,0.15737621872141586,0.0
0.061109848154765146,0.008507699788534617,0.15737782804701664,0.0
0.061103142631428554,0.00849697095119607,0.15735771147700686,0.0
0.06109831465462621,0.008521915498008192,0.15737621872141586,0.0
0.061111189259432465,0.008590848277908358,0.15738560645408708,0.0
0.06109750999182582,0.008558661765892716,0.1573810466982182,0.0
0.06109429134062425,0.008550615137888806,0.15739258019835714,0.0
0.06110421551516241,0.008540422742417186,0.15739767639609295,0.0
0.061090804468489225,0.008534521881880985,0.15741457431490116,0.0
0.061091609131289616,0.008539618079616795,0.15742959468717513,0.0
0.061100192201160454,0.008510381997869253,0.15740411369849608,0.0
0.06110153330582777,0.008418382217691209,0.15737541405861546,0.0
0.06112164987583755,0.008437694124900594,0.15734242288379943,0.0
0.06111253036409978,0.008551956242556124,0.15737487761674854,0.0
0.06109697354995889,0.008545250719219532,0.15739901750076027,0.0
0.06110233796862816,0.008513600649070818,0.15737380473301468,0.0
0.061076320538082186,0.008451373392507242,0.15737246362834736,0.0
0.061069615014745594,0.008518428625873164,0.15739150731462329,0.0
0.061087049375420734,0.008542568509884895,0.1574135014311673,0.0
0.06109965575929353,0.008556247777491543,0.15741859762890312,0.0
0.06110046042209392,0.00851601463747199,0.15742771714064088,0.0
0.061080612073017605,0.008533717219080594,0.15743549554771133,0.0
0.06107819808461643,0.008542032068017968,0.15746204942012423,0.0
0.06106800568914481,0.00850206714893188,0.15746553629225926,0.0
0.06106559170074364,0.008476854381186292,0.1574513205827857,0.0
0.06108329428235224,0.008505285800133443,0.15746204942012423,0.0
0.061091609131289616,0.008533180777213666,0.15744649260598334,0.0
0.061101801526761236,0.008515478195605063,0.1574357637686448,0.0
0.061095096003424644,0.008489192544125623,0.15744407861758217,0.0
0.06111360324783364,0.00849697095119607,0.15742369382663893,0.0
0.06108678115448727,0.008500726044264561,0.15741376965210077,0.0
0.06109429134062425,0.008495629846528751,0.1573890933262221,0.0
0.06109455956155772,0.008549005812288023,0.15740894167529842,0.0
0.06110046042209392,0.008581728766170593,0.1573957988495587,0.0
0.061083562503285706,0.00851091843973618,0.1573957988495587,0.0
0.06110421551516241,0.008519769730540482,0.15742127983823775,0.0
0.06109348667782386,0.008570731707898582,0.1574202069545039,0.0
0.06110153330582777,0.008589238952307576,0.15741296498930038,0.0
0.06107712520088258,0.008550078696021878,0.15740491836129647,0.0
0.061092950235956935,0.008575827905634392,0.15740089504729451,0.0
0.061117090119968666,0.008610160185117743,0.15740116326822798,0.0
0.06111789478276906,0.008584947417372157,0.15740089504729451,0.0
0.061087049375420734,0.008603991103648078,0.15738748400062133,0.0
0.06108007563115068,0.008540422742417186,0.15737782804701664,0.0
0.06108946336382191,0.00856992704509819,0.15739016620995597,0.0
0.061081416735817996,0.008555443114691152,0.15739150731462329,0.0
0.061056472189005874,0.008563221521761599,0.1573831924656859,0.0
0.061066664584477494,0.008572609254432827,0.1573949941867583,0.0
0.06108088029395107,0.008560807533360425,0.15740706412876418,0.0
0.061081416735817996,0.008522451939875119,0.15740786879156457,0.0
0.061076856979949114,0.008558661765892716,0.15740572302409686,0.0
0.06107819808461643,0.008596749138444559,0.15740572302409686,0.0
0.061083562503285706,0.00856697661483009,0.15739016620995597,0.0
0.06107605231714872,0.008544982498286068,0.15741993873357044,0.0
0.06106800568914481,0.008561343975227353,0.1574371048733121,0.0
0.061072565445013695,0.008617402150321264,0.15744729726878373,0.0
0.061074711212481404,0.008584142754571766,0.1574542710130538,0.0
0.06109053624755576,0.008550615137888806,0.15740786879156457,0.0
0.061066128142610566,0.008509040893201935,0.15744944303625144,0.0
0.06105674040993934,0.008529157463211711,0.15745883076892267,0.0
0.061062909491409,0.008604527545515005,0.15747224181559585,0.0
0.06107015145661252,0.008621961906190146,0.15744917481531798,0.0
0.061079807410217214,0.008621961906190146,0.15744702904785027,0.0
0.06108678115448727,0.008620889022456292,0.1574572214433219,0.0
0.0610688103519452,0.008594871591910313,0.15743093579184245,0.0
0.06108544004981995,0.008617133929387798,0.15742771714064088,0.0
0.06110448373609587,0.008609891964184279,0.15744649260598334,0.0
0.06108812225915459,0.008596212696577631,0.1574497112571849,0.0
0.0610843671660861,0.008613915278186234,0.15745990365265652,0.0
0.061111993922232856,0.008623839452724392,0.1574475654897172,0.0
0.061110921038499,0.008604259324581542,0.1574371048733121,0.0
0.06110046042209392,0.008585483859239084,0.15745158880371915,0.0
0.06108114851488453,0.008560807533360425,0.1574459561641164,0.0
0.06110716594543051,0.008595139812843777,0.15742557137317317,0.0
0.06109697354995889,0.008590848277908358,0.15740116326822798,0.0
0.06108409894515263,0.00855383378909037,0.15741832940796965,0.0
0.061052180654070455,0.008563489742695062,0.15743522732677787,0.0
0.06106505525887671,0.008598090243111877,0.15744515150131602,0.0
0.06107739342181604,0.008532912556280203,0.15740572302409686,0.0
0.06104869378193543,0.008542568509884895,0.15740679590783072,0.0
0.061070419677545985,0.008543104951751822,0.1574387141989129,0.0
0.06108624471262034,0.008599967789646123,0.15747546046679742,0.0
0.06110287441049509,0.008615256382853553,0.1574690231643943,0.0
0.061082757840485315,0.008600236010579587,0.15745748966425535,0.0
0.06108973158475537,0.008594871591910313,0.15745748966425535,0.0
0.06108034385208414,0.008541227405217577,0.1574290582453082,0.0
0.06108409894515263,0.0085691223822978,0.15741913407077004,0.0
0.06108758581728766,0.008553029126289979,0.15744220107104792,0.0
0.061071224340346376,0.008544446056419141,0.15744112818731407,0.0
0.06106398237514286,0.008544446056419141,0.15744783371065066,0.0
0.06108168495675146,0.008578241894035565,0.15747143715279546,0.0
0.061092145573156544,0.00857931477776942,0.15746124475732384,0.0
0.06105674040993934,0.008564294405495453,0.15747304647839624,0.0
0.0610452069098004,0.008550078696021878,0.15747224181559585,0.0
0.061069615014745594,0.008522183718941655,0.15745078414091876,0.0
0.061052985316870846,0.00856992704509819,0.15744273751291485,0.0
0.061034746293395316,0.00857716901030171,0.15746875494346083,0.0
0.06103072297939336,0.00853639942841523,0.15747143715279546,0.0
0.06105674040993934,0.008557857103092325,0.15749423593213988,0.0
0.06105915439834051,0.008528889242278247,0.1574800202226663,0.0
0.061048425561001964,0.0085720728125659,0.15748726218786982,0.0
0.061034746293395316,0.008583069870837911,0.15752078980455278,0.0
0.061041988258598835,0.008555711335624615,0.1574837753157348,0.0
0.06104735267726811,0.008488924323192159,0.15745534389678764,0.0
0.06103072297939336,0.008511991323470035,0.1574926266065391,0.0
0.061048425561001964,0.008570731707898582,0.15752695888602244,0.0
0.061051375991270064,0.00855463845189076,0.15750630587414574,0.0
0.061037696723663416,0.008480609474254785,0.15746124475732384,0.0
0.06105834973554012,0.008501262486131488,0.15749343126933948,0.0
0.06105325353780431,0.008592725824442603,0.15749235838560563,0.0
0.0610393060492642,0.008554102010023833,0.1574762651295978,0.0
0.06103072297939336,0.008567781277630481,0.1574682185015939,0.0
0.061042792921399226,0.008518428625873164,0.15746553629225926,0.0
0.06104037893299805,0.008600236010579587,0.15747867911799898,0.0
0.061048425561001964,0.00859835846404534,0.1574749240249305,0.0
0.061062373049542075,0.008555174893757688,0.1574475654897172,0.0
0.06105888617740705,0.008544982498286068,0.15744246929198139,0.0
0.06105325353780431,0.008557052440291934,0.15745748966425535,0.0
0.06105539930527202,0.008536935870282158,0.15746285408292462,0.0
0.06106800568914481,0.008561343975227353,0.157471168931862,0.0
0.061074711212481404,0.008558661765892716,0.15749343126933948,0.0
0.06105754507273973,0.008542568509884895,0.157482165990134,0.0
0.06106344593327593,0.00858816606857372,0.15751891225801853,0.0
0.061082757840485315,0.008570463486965118,0.15750013679267608,0.0
0.06107524765434833,0.00854954225415495,0.15748538464133557,0.0
0.061066128142610566,0.008576632568434783,0.15750335544387764,0.0
0.06107417477061448,0.0085720728125659,0.15747090071092854,0.0
0.06106210482860861,0.00854954225415495,0.1574749240249305,0.0
0.0610902680266223,0.008591921161642212,0.15745668500145496,0.0
0.06106344593327593,0.008521379056141264,0.15744997947811837,0.0
0.061047889119135036,0.008533985440014057,0.1574851164204021,0.0
0.06108517182888649,0.008631886080728303,0.15749155372280524,0.0
0.061083562503285706,0.008609623743250815,0.1574749240249305,0.0
0.061052180654070455,0.008540959184284113,0.15746634095505965,0.0
0.06104601157260079,0.00855168802162266,0.15748243421106747,0.0
0.061026699665391405,0.00852835280041132,0.15746473162945887,0.0
0.06102321279325638,0.008538008754016013,0.15747063248999507,0.0
0.06104011071206459,0.008554370230957297,0.15751891225801853,0.0
0.0610363556189961,0.008563221521761599,0.1574985274670753,0.0
0.061034746293395316,0.008518965067740091,0.15749584525774066,0.0
0.06105834973554012,0.00851306420720389,0.15747385114119664,0.0
0.06106773746821135,0.008485437451057131,0.1574690231643943,0.0
0.06104011071206459,0.008521647277074728,0.1574438103966487,0.0
0.061039037828330735,0.008568317719497408,0.15749316304840602,0.0
0.0610599590611409,0.008575023242834,0.1574888715134706,0.0
0.061062909491409,0.008447886520372214,0.15744917481531798,0.0
0.06104252470046576,0.008461029346111934,0.15745748966425535,0.0
0.061070419677545985,0.008551956242556124,0.15749128550187177,0.0
0.06106183660767515,0.008524865928276292,0.15744059174544714,0.0
0.06107202900314677,0.008515478195605063,0.15745319812931993,0.0
0.061077661642749505,0.008528084579477856,0.15746553629225926,0.0
0.061066128142610566,0.00848677855572445,0.15745668500145496,0.0
0.06107524765434833,0.008504212916399589,0.15744139640824753,0.0
0.06107229722408023,0.008480877695188248,0.1574446150594491,0.0
0.061066128142610566,0.008472026404383945,0.15744702904785027,0.0
0.061055131084338556,0.008517892184006236,0.15744810193158412,0.0
0.06106934679381213,0.008531035009745957,0.15745480745492071,0.0
0.061068273910078276,0.008525134149209756,0.15745212524558608,0.0
0.06106425059607632,0.008495361625595287,0.15741108744276613,0.0
0.061034746293395316,0.008462638671712716,0.15743254511744323,0.0
0.061027504328191796,0.008474440392785118,0.15745400279212032,0.0
0.061063177712342466,0.008529157463211711,0.15746285408292462,0.0
0.061077661642749505,0.00852835280041132,0.15746070831545692,0.0
0.06106264127047554,0.008493752299994505,0.1574387141989129,0.0
0.061039842491131126,0.008468807753182381,0.15740679590783072,0.0
0.06104145181673191,0.008436084799299812,0.1574290582453082,0.0
0.06106505525887671,0.008521647277074728,0.15750308722294418,0.0
0.06104869378193543,0.008518696846806628,0.15749825924614183,0.0
0.061043329363266154,0.008499384939597242,0.15747546046679742,0.0
0.06105539930527202,0.008459688241444616,0.157423157384772,0.0
0.06105620396807241,0.008462102229845789,0.15740304081476222,0.0
0.061033405188728,0.008479536590520928,0.15743844597797943,0.0
0.061030991200326824,0.008458078915843834,0.15743951886171328,0.0
0.061051375991270064,0.008461834008912325,0.15741537897770155,0.0
0.06106934679381213,0.00850287181173227,0.15743308155931016,0.0
0.06103662383992956,0.008472026404383945,0.15741189210556653,0.0
0.06101597082805286,0.008414358903689254,0.15741189210556653,0.0
0.06106344593327593,0.008481950578922103,0.15742798536157435,0.0
0.06107095611941291,0.008460492904245007,0.15738292424475245,0.0
0.06105888617740705,0.00846585732291428,0.15739231197742368,0.0
0.061076856979949114,0.008475513276518973,0.1573944577448914,0.0
0.061083562503285706,0.008493484079061041,0.15737836448888357,0.0
0.06106720102634442,0.008456469590243052,0.15738346068661938,0.0
0.061082757840485315,0.008509577335068862,0.15743898241984636,0.0
0.06106210482860861,0.008488924323192159,0.15740652768689725,0.0
0.061065323479810175,0.008463175113579644,0.15739633529142563,0.0
0.06108114851488453,0.00843662124116674,0.1573574432560734,0.0
0.06106907857287867,0.008460492904245007,0.1573662945468777,0.0
0.06104011071206459,0.008435280136499421,0.1573603936863415,0.0
0.06105325353780431,0.008455128485575733,0.15737702338421625,0.0
0.061033405188728,0.008435548357432885,0.157345641535001,0.0
0.06105781329367319,0.008479536590520928,0.15735878436074072,0.0
0.06105271709593738,0.008499384939597242,0.15735556570953915,0.0
0.06102187168858906,0.008459688241444616,0.15736790387247848,0.0
0.06103206408406068,0.008472026404383945,0.15732176987192273,0.0
0.0610393060492642,0.008477390823053219,0.15734135000006558,0.0
0.061034746293395316,0.008489997206926014,0.1573330351511282,0.0
0.06103876960739727,0.008507699788534617,0.15732847539525932,0.0
0.061047889119135036,0.008508236230401544,0.15731345502298535,0.0
0.06103716028179649,0.008461029346111934,0.15729226556924172,0.0
0.061015702607119394,0.008479268369587465,0.15728448716217128,0.0
0.06102938187472604,0.008498848497730315,0.15732579318592468,0.0
0.06103850138646381,0.00849697095119607,0.15731265036018496,0.0
0.06105969084020744,0.008549274033221487,0.15732954827899318,0.0
0.061043329363266154,0.008488656102258695,0.15733196226739435,0.0
0.06102938187472604,0.00854954225415495,0.15733249870926128,0.0
0.061044938688866936,0.008543909614552214,0.15733249870926128,0.0
0.06106264127047554,0.008523793044542437,0.15732069698818887,0.0
0.061056472189005874,0.008515478195605063,0.15731667367418692,0.0
0.061020798804855204,0.008522183718941655,0.15732901183712625,0.0
0.06102777254912526,0.008525134149209756,0.15732579318592468,0.0
0.06105539930527202,0.008482218799855567,0.1573056766159149,0.0
0.06106398237514286,0.008500726044264561,0.1573410817791321,0.0
0.06104386580513308,0.008509309114135399,0.15735100595367027,0.0
0.06103742850272995,0.008509577335068862,0.1573700496399462,0.0
0.06108088029395107,0.008531035009745957,0.15734510509313407,0.0
0.061059422619273974,0.008455128485575733,0.15732740251152547,0.0
0.061033941630594925,0.008489460765059086,0.15734430043033368,0.0
0.06103555095619571,0.008483023462655958,0.1573485919652691,0.0
0.06101543438618593,0.008481414137055176,0.15735690681420647,0.0
0.06099504959524269,0.008439035229567913,0.15733196226739435,0.0
0.06099290382777498,0.008410603810620762,0.15732954827899318,0.0
0.061001218676712356,0.008378953740472048,0.157338131348864,0.0
0.06102348101418984,0.00842133264795931,0.15728851047617323,0.0
0.06102106702578867,0.00844252210170294,0.1572694667898973,0.0
0.060999609351111574,0.008443326764503331,0.15726490703402843,0.0
0.0609971953627104,0.008472294625317409,0.15728743759243938,0.0
0.06098914873470649,0.008475513276518973,0.15726812568523,0.0
0.06099209916497459,0.008455933148376124,0.1572761723132339,0.0
0.060982174990436434,0.008444399648237186,0.15727214899923195,0.0
0.060978688118301407,0.008481950578922103,0.15727563587136698,0.0
0.0609735919205656,0.008462638671712716,0.15724800911522022,0.0
0.06101087463031705,0.008481145916121712,0.15726034727815955,0.0
0.06099370849057537,0.008447081857571823,0.15724130359188362,0.0
0.06098458897883761,0.008495361625595287,0.15726383415029457,0.0
0.06100068223484543,0.00845995646237808,0.15725203242922217,0.0
0.06099987757204504,0.008463711555446571,0.1572327205220128,0.0
0.06101999414205481,0.008503676474532661,0.15724425402215172,0.0
0.06101597082805286,0.008490801869726405,0.15720321621933178,0.0
0.06098861229283956,0.008476317939319364,0.1572193094753396,0.0
0.06101033818845012,0.008460492904245007,0.1572104581845353,0.0
0.060993976711508836,0.008422405531693164,0.15719919290532983,0.0
0.06100711953724856,0.008448959404106069,0.1572488137780206,0.0
0.06101087463031705,0.008522720160808583,0.1572407671500167,0.0
0.06101328861871822,0.008530230346945566,0.15722038235907346,0.0
0.06102053058392174,0.00848972898599255,0.15720992174266837,0.0
0.06100363266511353,0.008481414137055176,0.15722681966147659,0.0
0.061004169106980456,0.008470685299716627,0.15726624813869575,0.0
0.06102911365379258,0.00849267941626065,0.15728234139470357,0.0
0.06102643144445794,0.00845995646237808,0.15726168838282686,0.0
0.06101167929311744,0.008451105171573778,0.15725605574322413,0.0
0.061031795863127215,0.008497507393062997,0.15727483120856658,0.0
0.061017848374587104,0.00840899448501998,0.15721796837067228,0.0
0.06102562678165755,0.008433939031832103,0.15724559512681904,0.0
0.06102991831659297,0.008475513276518973,0.15723647561508128,0.0
0.06101462972338554,0.008449227625039532,0.15720777597520066,0.0
0.06102643144445794,0.008480877695188248,0.15721448149853726,0.0
0.061018653037387495,0.008487851439458304,0.157190609835459,0.0
0.061014897944319,0.008444936090104114,0.15718792762612435,0.0
0.061019457700187886,0.008455396706509197,0.1571935602657271,0.0
0.061019457700187886,0.008431793264364393,0.15715976442811067,0.0
0.06102723610725833,0.008379490182338975,0.1571396478581009,0.0
0.06101623904898632,0.008473635729984727,0.15715895976531027,0.0
0.06102777254912526,0.0085720728125659,0.1571847089749228,0.0
0.061019457700187886,0.008535862986548303,0.1571771987887858,0.0
0.06104145181673191,0.008480609474254785,0.1571468898233044,0.0
0.061024553897923696,0.008448154741305678,0.15717371191665078,0.0
0.06101516616525247,0.008546323602953387,0.15719704713786212,0.0
0.06101167929311744,0.008503944695466125,0.1571683474979815,0.0
0.06101248395591783,0.008445204311037577,0.15712838257889541,0.0
0.06102106702578867,0.008454055601841879,0.1571291872416958,0.0
0.06101999414205481,0.00849482518372836,0.15715118135823983,0.0
0.06102911365379258,0.00850206714893188,0.157164592404913,0.0
0.06101328861871822,0.008496434509329142,0.1571691521607819,0.0
0.061017848374587104,0.008450836950640314,0.15718122210278776,0.0
0.061011411072183976,0.008408458043153053,0.1571662017305138,0.0
0.06101006996751666,0.008475513276518973,0.15719677891692865,0.0
0.06102911365379258,0.008550615137888806,0.1572260149986762,0.0
0.061023749235123305,0.008471758183450482,0.1572193094753396,0.0
0.06099290382777498,0.008454592043708806,0.15722494211494234,0.0
0.06101918947925442,0.00854364139361875,0.15721770014973882,0.0
0.06101918947925442,0.00852540237014322,0.15722011413814,0.0
0.06102213990952252,0.008499653160530706,0.15720428910306564,0.0
0.06100524199071431,0.008471221741583554,0.1572112628473357,0.0
0.06101597082805286,0.008517087521205845,0.15723888960348245,0.0
0.061016507269919786,0.008524061265475901,0.15719919290532983,0.0
0.06098968517657342,0.00855383378909037,0.15719919290532983,0.0
0.060991026281240736,0.008522183718941655,0.1571788081143866,0.0
0.060993172048708445,0.008538276974949476,0.1571632513002457,0.0
0.06101382506058515,0.008539081637749867,0.15716378774211262,0.0
0.061020798804855204,0.008518965067740091,0.1571890005098582,0.0
0.06101114285125051,0.008520574393340873,0.15721314039386994,0.0
0.06099048983937381,0.008483559904522885,0.15715225424197368,0.0
0.061009801746583193,0.008536935870282158,0.15717317547478385,0.0
0.06103742850272995,0.008586020301106011,0.1572281607661439,0.0
0.06102213990952252,0.008557857103092325,0.15721957769627307,0.0
0.060998268246444255,0.008518428625873164,0.15720911707986798,0.0
0.06101462972338554,0.008529693905078638,0.15721072640546876,0.0
0.06102187168858906,0.00847524505558551,0.1572037526611987,0.0
0.061028040770058724,0.008380831287006294,0.15720133867279754,0.0
0.06100792420004895,0.0084191868804916,0.1572281607661439,0.0
0.06100282800231314,0.008524061265475901,0.15727375832483273,0.0
0.06102428567699023,0.008495629846528751,0.15726919856896385,0.0
0.06102348101418984,0.008477927264920146,0.15724532690588558,0.0
0.0610119475140509,0.008439839892368304,0.15723352518481318,0.0
0.06100872886284934,0.008499653160530706,0.157238621382549,0.0
0.06099665892084347,0.008489460765059086,0.15723352518481318,0.0
0.06100711953724856,0.008504749358266516,0.15724130359188362,0.0
0.061009265304716266,0.008483559904522885,0.15724479046401865,0.0
0.06101918947925442,0.008470417078783163,0.15725069132455485,0.0
0.06101087463031705,0.008466125543847744,0.15722118702187385,0.0
0.06104386580513308,0.008505554021066907,0.15718497719585625,0.0
0.06103850138646381,0.008473367509051264,0.15719758357972904,0.0
0.060982979653236825,0.00848248702078903,0.15719034161452553,0.0
0.06101677549085325,0.008523524823608974,0.15720026578906368,0.0
0.06101731193272018,0.008505285800133443,0.15720187511466446,0.0
0.06102535856072409,0.008518428625873164,0.15719543781226133,0.0
0.06102267635138945,0.008543909614552214,0.15716968860264882,0.0
0.06099987757204504,0.008529693905078638,0.15717773523065273,0.0
0.06101114285125051,0.008503140032665734,0.15716700639331418,0.0
0.0610304547584599,0.008507431567601153,0.1571801492190539,0.0
0.06100792420004895,0.008463979776380035,0.15719034161452553,0.0
0.061015702607119394,0.008481414137055176,0.1571763941259854,0.0
0.06105083954940314,0.008563757963628526,0.1571957060331948,0.0
0.061039842491131126,0.008507699788534617,0.1571927556029267,0.0
0.061014361502452076,0.00853854519588294,0.15719248738199323,0.0
0.06100953352564973,0.00858226520803752,0.1572134086148034,0.0
0.06101248395591783,0.008523793044542437,0.1571898051726586,0.0
0.061007655979115484,0.008476854381186292,0.15720107045186407,0.0
0.06102562678165755,0.008497239172129533,0.15725283709202256,0.0
0.06101516616525247,0.008509845556002326,0.1572437175802848,0.0
0.06102053058392174,0.008495361625595287,0.15726168838282686,0.0
0.061032600525927606,0.008530766788812493,0.1572563239641576,0.0
0.06101543438618593,0.008502603590798807,0.15726410237122804,0.0
0.060991026281240736,0.008459151799577689,0.1572799274063024,0.0
0.06100658309538163,0.008504212916399589,0.1572702714526977,0.0
0.061027504328191796,0.008530230346945566,0.15728824225523977,0.0
0.061026699665391405,0.008503408253599198,0.15729441133670943,0.0
0.06098673474630532,0.008515478195605063,0.1572925337901752,0.0
0.06099853646737772,0.008514137090937745,0.15731586901138653,0.0
0.06102562678165755,0.008511186660669644,0.15731774655792077,0.0
0.06098780763003917,0.00847524505558551,0.1573064812787153,0.0
0.06099344026964191,0.008459420020511152,0.1572925337901752,0.0
0.06100095045577889,0.008496434509329142,0.15730192152284642,0.0
0.06099156272310766,0.008529157463211711,0.15732445208125737,0.0
0.06100363266511353,0.008477927264920146,0.15731479612765267,0.0
0.06098780763003917,0.00846076112517847,0.15730111686004603,0.0
0.0609735919205656,0.008488656102258695,0.15731506434858614,0.0
0.060993172048708445,0.008459420020511152,0.1572946795576429,0.0
0.06100577843258124,0.008448691183172605,0.15731372324391882,0.0
0.06100577843258124,0.008430988601564002,0.1572871693715059,0.0
0.06099183094404113,0.00844171743890255,0.15727778163883468,0.0
0.06099665892084347,0.008388341473143277,0.1572724172201654,0.0
0.060999072909244646,0.008424551299160874,0.15727509942950005,0.0
0.060982979653236825,0.008437694124900594,0.15728770581337284,0.0
0.060990221618440345,0.008498312055863388,0.15726597991776228,0.0
0.060985393641638,0.00845271449717456,0.15728851047617323,0.0
0.06099290382777498,0.008438767008634449,0.15725015488268793,0.0
0.060984320757904144,0.008494020520927969,0.15728743759243938,0.0
0.06098405253697068,0.008510381997869253,0.15731104103458418,0.0
0.06099478137430923,0.008444399648237186,0.15726088372002647,0.0
0.06100229156044621,0.008407116938485735,0.1572327205220128,0.0
0.061007655979115484,0.008398533868614897,0.15720858063800106,0.0
0.06101114285125051,0.008489997206926014,0.15723325696387971,0.0
0.061005510211647775,0.008438498787700985,0.1572504231036214,0.0
0.06099075806030727,0.008419455101425064,0.1572193094753396,0.0
0.061000414013911965,0.008410067368753835,0.157231111196412,0.0
0.060991026281240736,0.008440376334235231,0.1572327205220128,0.0
0.0609971953627104,0.008422405531693164,0.15722333278934156,0.0
0.06102133524672213,0.00841194491528808,0.15720187511466446,0.0
0.06101462972338554,0.008406312275685343,0.15720321621933178,0.0
0.06096876394376325,0.00837761263580473,0.15720026578906368,0.0
0.06098163854856951,0.00840604405475188,0.15720402088213217,0.0
0.0610089970837828,0.008421600868892773,0.15720938530080145,0.0
0.06101328861871822,0.008378685519538584,0.15724693623148636,0.0
0.06098753940910571,0.00830492476283607,0.1572474726733533,0.0
0.06098029744390219,0.008409799147820371,0.1571898051726586,0.0
0.061002559781379674,0.008429111055029756,0.15722065058000692,0.0
0.061003364444180065,0.008423746636360483,0.15719731535879558,0.0
0.060992367385908054,0.008425624182894728,0.15718444075398932,0.0
0.06099344026964191,0.00845566492744266,0.15719731535879558,0.0
0.06100711953724856,0.008467734869448526,0.15721609082413804,0.0
0.06099853646737772,0.008407116938485735,0.15719731535879558,0.0
0.0609883440719061,0.008388073252209813,0.15714501227677016,0.0
0.060995317816176155,0.00849697095119607,0.15722413745214195,0.0
0.06100819242098241,0.008463175113579644,0.15721528616133765,0.0
0.06101248395591783,0.00844252210170294,0.1572024115565314,0.0
0.06098914873470649,0.008410067368753835,0.15720187511466446,0.0
0.061002559781379674,0.008441180997035622,0.15721609082413804,0.0
0.06099853646737772,0.00844171743890255,0.1572193094753396,0.0
0.060992367385908054,0.008443058543569868,0.1572319158592124,0.0
0.060999072909244646,0.00843447547369903,0.15723754849881513,0.0
0.06099585425804308,0.008437157683033667,0.1572437175802848,0.0
0.06101248395591783,0.00845700603210998,0.15726839390616346,0.0
0.06101221573498437,0.008452178055307633,0.1572517642082887,0.0
0.06102106702578867,0.008443594985436795,0.15724908199895407,0.0
0.060967691060029396,0.008419991543291991,0.15725873795255876,0.0
0.06098137032763604,0.008484901009190204,0.15732311097659005,0.0
0.06098861229283956,0.008413017799021935,0.15726839390616346,0.0
0.061005510211647775,0.008433402589965175,0.15728153673190318,0.0
0.06100390088604699,0.008469612415982772,0.15729360667390904,0.0
0.06102777254912526,0.008477390823053219,0.15729655710417714,0.0
0.06101892125832096,0.00845995646237808,0.15728395072030435,0.0
0.061007655979115484,0.008425087741027801,0.15727080789456463,0.0
0.06097895633923487,0.008390219019677523,0.15728100029003625,0.0
0.06098190676950297,0.008462638671712716,0.15730969992991686,0.0
0.060993172048708445,0.008474172171851655,0.15731721011605385,0.0
0.060999072909244646,0.008455128485575733,0.1572997757553787,0.0
0.06100095045577889,0.008433670810898639,0.15731855122072116,0.0
0.06098646652537185,0.008467466648515063,0.15731265036018496,0.0
0.06100229156044621,0.008481414137055176,0.15731399146485228,0.0
0.061022408130455986,0.008494288741861433,0.15734081355819865,0.0
0.06101462972338554,0.008467198427581599,0.15735556570953915,0.0
0.060983784316037216,0.008499116718663779,0.1573410817791321,0.0
0.06099987757204504,0.008474708613718582,0.15732847539525932,0.0
0.061014897944319,0.008505554021066907,0.15729333845297558,0.0
0.060999072909244646,0.008473635729984727,0.15731667367418692,0.0
0.061000414013911965,0.008467198427581599,0.1573220380928562,0.0
0.06100363266511353,0.008452446276241097,0.15728985158084055,0.0
0.06102321279325638,0.008497507393062997,0.15730299440658027,0.0
0.06101918947925442,0.008417309333957354,0.15729789820884446,0.0
0.06098566186257146,0.008444936090104114,0.1573131868020519,0.0
0.06100658309538163,0.00849777561399646,0.157327134290592,0.0
0.0610119475140509,0.008480877695188248,0.15730621305778184,0.0
0.06100792420004895,0.00844976406690646,0.15732257453472312,0.0
0.060994513153375764,0.008420259764225455,0.15731935588352156,0.0
0.060999072909244646,0.008416504671156963,0.1573263296277916,0.0
0.06102321279325638,0.008414895345556181,0.1572997757553787,0.0
0.061017848374587104,0.008447886520372214,0.15730809060431608,0.0
0.061018653037387495,0.00850582224200037,0.15735020129086988,0.0
0.06099290382777498,0.00846585732291428,0.1573359855813963,0.0
0.061008460641915875,0.008472026404383945,0.15731694189512038,0.0
0.06102723610725833,0.008445472531971041,0.1573279389533924,0.0
0.06100819242098241,0.008387000368475958,0.1573249885231243,0.0
0.061007655979115484,0.008426160624761656,0.15733786312793055,0.0
0.06100738775818202,0.008437157683033667,0.15733115760459396,0.0
0.06101302039778476,0.008467198427581599,0.15732659784872507,0.0
0.06100229156044621,0.008442253880769477,0.15734322754659982,0.0
0.06100792420004895,0.00845486026464227,0.15735341994207144,0.0
0.060999072909244646,0.008423746636360483,0.15734725086060178,0.0
0.06099585425804308,0.008378149077671657,0.15731640545325346,0.0
0.060999609351111574,0.008424551299160874,0.15731694189512038,0.0
0.06098619830443839,0.008459151799577689,0.15733839956979748,0.0
0.060999072909244646,0.008467198427581599,0.15734081355819865,0.0
0.06101382506058515,0.00845995646237808,0.15732686606965854,0.0
0.0610060466535147,0.008451373392507242,0.1573507377327368,0.0
0.06098619830443839,0.008420796206092382,0.15734135000006558,0.0
0.06098780763003917,0.008435280136499421,0.15736897675621234,0.0
0.06098619830443839,0.00842937927596322,0.15734510509313407,0.0
0.0610030962232466,0.008438498787700985,0.15734886018620256,0.0
0.060983784316037216,0.00846585732291428,0.15733062116272703,0.0
0.060992367385908054,0.008457274253043443,0.15732874361619278,0.0
0.060989416955639954,0.0084730992881178,0.15732311097659005,0.0
0.0609765423508337,0.00843232970623132,0.15731050459271725,0.0
0.06094891559468694,0.008366883798466182,0.15731211391831804,0.0
0.0609735919205656,0.008412481357155008,0.15735127417460373,0.0
0.06100229156044621,0.008520842614274337,0.15738211958195206,0.0
0.06100443732791392,0.00850206714893188,0.15735020129086988,0.0
0.0609971953627104,0.008466930206648135,0.1573493966280695,0.0
0.06097466480429945,0.008439839892368304,0.1573300847208601,0.0
0.06097546946709984,0.008456469590243052,0.15735422460487183,0.0
0.060993976711508836,0.008440108113301767,0.1573493966280695,0.0
0.06100819242098241,0.008464247997313499,0.15735341994207144,0.0
0.060993172048708445,0.008466393764781208,0.15733544913952938,0.0
0.06098029744390219,0.008438767008634449,0.15732472030219083,0.0
0.060989416955639954,0.008492411195327187,0.15730621305778184,0.0
0.06100363266511353,0.00848758321852484,0.15733062116272703,0.0
0.0610001457929785,0.008495093404661824,0.1573477873024687,0.0
0.06098619830443839,0.008494288741861433,0.1573485919652691,0.0
0.06098968517657342,0.008502603590798807,0.15732391563939044,0.0
0.06099263560684152,0.008470685299716627,0.15732740251152547,0.0
0.060969032164696714,0.00839585165928026,0.15730621305778184,0.0
0.06097841989736794,0.008464516218246962,0.1573123821392515,0.0
0.06099183094404113,0.008523524823608974,0.15734000889539826,0.0
0.06098029744390219,0.008479536590520928,0.15735797969794033,0.0
0.06097681057176716,0.008474708613718582,0.1573552974886057,0.0
0.06098780763003917,0.008504212916399589,0.15735395638393837,0.0
0.0609971953627104,0.008494556962794896,0.1573308893836605,0.0
0.06101328861871822,0.008506358683867298,0.15735878436074072,0.0
0.06101033818845012,0.008467198427581599,0.1573810466982182,0.0
0.060994513153375764,0.008477390823053219,0.1573464461978014,0.0
0.06099934113017811,0.008484096346389813,0.15729789820884446,0.0
0.06100175511857928,0.008475513276518973,0.15732069698818887,0.0
0.06097734701363409,0.008476586160252828,0.15732472030219083,0.0
0.06096715461816247,0.008498312055863388,0.15732659784872507,0.0
0.0609735919205656,0.0084730992881178,0.15732445208125737,0.0
0.06097520124616638,0.00849482518372836,0.15730460373218105,0.0
0.06098753940910571,0.0084760497183859,0.15731694189512038,0.0
0.06098351609510375,0.008507699788534617,0.15731399146485228,0.0
0.0610089970837828,0.008494556962794896,0.15731104103458418,0.0
0.06101758015365364,0.008422405531693164,0.15727214899923195,0.0
0.06098619830443839,0.008436353020233276,0.15728100029003625,0.0
0.060989416955639954,0.008519233288673555,0.15733062116272703,0.0
0.06099558603710962,0.008444399648237186,0.15729628888324368,0.0
0.06100095045577889,0.008370907112468138,0.1572356709522809,0.0
0.06100095045577889,0.008415700008356572,0.15726785746429653,0.0
0.06095830332735817,0.008387268589409422,0.15728690115057245,0.0
0.06097895633923487,0.00848758321852484,0.15731989232538848,0.0
0.06098566186257146,0.008453519159974951,0.1572984346507114,0.0
0.0609794927811018,0.008429111055029756,0.15731184569738457,0.0
0.060982979653236825,0.008440376334235231,0.15734000889539826,0.0
0.06099048983937381,0.008443326764503331,0.15730835882524954,0.0
0.06099290382777498,0.008422941973560092,0.1572635659293611,0.0
0.060999072909244646,0.008413017799021935,0.1572842189412378,0.0
0.060999609351111574,0.008421064427025846,0.1573174783369873,0.0
0.06097600590896677,0.008420796206092382,0.15731265036018496,0.0
0.060989416955639954,0.008398533868614897,0.15729494777857636,0.0
0.061014361502452076,0.008412481357155008,0.15729360667390904,0.0
0.06099853646737772,0.00838351349634093,0.15729655710417714,0.0
0.06097439658336599,0.008412481357155008,0.15729011980177401,0.0
0.06097761523456755,0.00843232970623132,0.1572946795576429,0.0
0.060988075850972635,0.00839880208954836,0.1572563239641576,0.0
0.060985393641638,0.008409530926886908,0.15725417819668988,0.0
0.06097037326936403,0.008455396706509197,0.1572694667898973,0.0
0.0609794927811018,0.008456737811176515,0.1572694667898973,0.0
0.06098324787417029,0.008439839892368304,0.15725095954548832,0.0
0.06097251903683174,0.008426697066628583,0.15726544347589536,0.0
0.06097386014149906,0.008459688241444616,0.15728770581337284,0.0
0.06098056566483565,0.008407653380352662,0.1572783180807016,0.0
0.060966886397229005,0.008354813856460317,0.15724774089428675,0.0
0.060984320757904144,0.008435548357432885,0.15724184003375055,0.0
0.060983784316037216,0.00840604405475188,0.1572488137780206,0.0
0.06096527707162822,0.00838565926380864,0.1572466680105529,0.0
0.060962594862293586,0.008416504671156963,0.15722789254521044,0.0
0.06096205842042666,0.008403630066350707,0.15721984591720653,0.0
0.06096930038563018,0.008374662205536629,0.15723969426628284,0.0
0.060992367385908054,0.008421869089826237,0.15725283709202256,0.0
0.06101462972338554,0.008411408473421153,0.1572319158592124,0.0
0.060999072909244646,0.0084162364502235,0.15722386923120849,0.0
0.060984320757904144,0.008416504671156963,0.15723540273134742,0.0
0.06097976100203526,0.008423210194493555,0.1572592743944257,0.0
0.060980833885769116,0.008399606752348751,0.15727295366203234,0.0
0.0609794927811018,0.008378149077671657,0.15725498285949027,0.0
0.06097305547869867,0.008343280356321378,0.1572327205220128,0.0
0.060982979653236825,0.00839880208954836,0.15724693623148636,0.0
0.06100282800231314,0.008427769950362438,0.15726007905722608,0.0
0.06100363266511353,0.008391291903411377,0.15723915782441591,0.0
0.060990221618440345,0.008334965507384003,0.15727590409230044,0.0
0.06094703804815269,0.008254767448278362,0.15727563587136698,0.0
0.060979224560168334,0.008376807973004339,0.15727778163883468,0.0
0.06097546946709984,0.008336038391117857,0.15723728027788167,0.0
0.06098029744390219,0.00843662124116674,0.1572622248246938,0.0
0.06097010504843057,0.00841114025248769,0.15727188077829848,0.0
0.06096876394376325,0.0083593736123292,0.15725686040602452,0.0
0.06098700296723878,0.008412749578088472,0.1572340616266801,0.0
0.06097841989736794,0.00839370589181255,0.15724935021988753,0.0
0.060966081734428614,0.00837332110086931,0.15723325696387971,0.0
0.06096742283909593,0.008402557182616852,0.157238621382549,0.0
0.060980833885769116,0.008374662205536629,0.15725015488268793,0.0
0.06098458897883761,0.008338184158585567,0.15724613156868597,0.0
0.060972787257765206,0.008351863426192216,0.1572533735338895,0.0
0.06095723044362431,0.008371979996201992,0.15727000323176424,0.0
0.06096634995536208,0.008387000368475958,0.15728609648777206,0.0
0.06096071731575934,0.00834998587965797,0.15727161255736502,0.0
0.06096018087389241,0.008345426123789088,0.15725954261535915,0.0
0.06095293890868889,0.008417309333957354,0.15728153673190318,0.0
0.06094891559468694,0.008395315217413333,0.15730969992991686,0.0
0.060955889338956994,0.008367152019399646,0.1572828778365705,0.0
0.06093872319921532,0.008355350298327244,0.15727563587136698,0.0
0.06094086896668303,0.00839075546154445,0.1572946795576429,0.0
0.060960985536692804,0.008424014857293946,0.15729065624364094,0.0
0.060956694001757385,0.008381904170740148,0.15726758924336307,0.0
0.06094462405975152,0.008323700228178528,0.1572820731737701,0.0
0.06094542872255191,0.008338184158585567,0.15727644053416737,0.0
0.06095132958308811,0.008373589321802774,0.15726597991776228,0.0
0.06093228589681219,0.00844252210170294,0.15727858630163508,0.0
0.06094542872255191,0.00838780503127635,0.15732767073245893,0.0
0.060936309210814145,0.008354545635526853,0.15732176987192273,0.0
0.06095723044362431,0.008440644555168695,0.15733759490699709,0.0
0.06096581351349515,0.008385391042875176,0.15733625380232977,0.0
0.060967691060029396,0.008380026624205903,0.15734322754659982,0.0
0.06095347535055582,0.008440644555168695,0.15731399146485228,0.0
0.060955889338956994,0.008458615357710761,0.1572850236040382,0.0
0.06094972025748733,0.00840094785701607,0.15727134433643156,0.0
0.060946501606285765,0.008381635949806685,0.15728636470870552,0.0
0.06095910799015856,0.00838270883354054,0.15729575244137675,0.0
0.06095401179242275,0.008360714716996518,0.15729789820884446,0.0
0.06095481645522314,0.008381099507939757,0.1573330351511282,0.0
0.060939259641082245,0.008364201589131546,0.15729333845297558,0.0
0.0609491838156204,0.00836742024033311,0.15730245796471334,0.0
0.06094542872255191,0.008380294845139366,0.15731667367418692,0.0
0.06095401179242275,0.008384854601008249,0.15731184569738457,0.0
0.06096205842042666,0.00828668573936054,0.1572997757553787,0.0
0.06097546946709984,0.008340866367920204,0.1573131868020519,0.0
0.06097251903683174,0.008392096566211768,0.15730460373218105,0.0
0.06096232664136012,0.008387000368475958,0.15731855122072116,0.0
0.06096018087389241,0.008435011915565957,0.15732364741845697,0.0
0.06095937621109202,0.008370638891534674,0.15732472030219083,0.0
0.06094381939695113,0.00838270883354054,0.15733544913952938,0.0
0.06094998847842079,0.008379490182338975,0.1573418864419325,0.0
0.06096581351349515,0.008377880856738193,0.15731130925551765,0.0
0.060965545292561686,0.008401484298882997,0.1573064812787153,0.0
0.06096152197855973,0.0084162364502235,0.15731345502298535,0.0
0.06097895633923487,0.008435816578366348,0.1573359855813963,0.0
0.06097332369963213,0.008395046996479869,0.15730996815085033,0.0
0.06096339952509398,0.008380026624205903,0.1573220380928562,0.0
0.060974933025232915,0.00837841729860512,0.15729226556924172,0.0
0.0609765423508337,0.008365006251931937,0.15729709354604407,0.0
0.06097225081589828,0.00835213164712568,0.15732740251152547,0.0
0.06097761523456755,0.008352399868059144,0.157356638593273,0.0
0.06095401179242275,0.00832825998404741,0.15734617797686792,0.0
0.060950256699354256,0.008345426123789088,0.1573700496399462,0.0
0.06099773180457733,0.008353740972726462,0.15736736743061155,0.0
0.06098780763003917,0.008325845995646237,0.1573603936863415,0.0
0.060955352897090066,0.008374930426470093,0.15736200301194228,0.0
0.06095320712962236,0.00837761263580473,0.15737836448888357,0.0
0.060982174990436434,0.008387268589409422,0.1573485919652691,0.0
0.0609794927811018,0.008339793484186349,0.1573123821392515,0.0
0.06096634995536208,0.008314580716440763,0.15732686606965854,0.0
0.06096956860656364,0.008378953740472048,0.15732606140685815,0.0
0.060974128362432524,0.008382977054474003,0.15735851613980725,0.0
0.060985125420704535,0.008374393984603165,0.15731935588352156,0.0
0.060977078792700624,0.008333087960849757,0.15727214899923195,0.0
0.06095267068775543,0.00834998587965797,0.15726812568523,0.0
0.06097305547869867,0.008412213136221544,0.157297629987911,0.0
0.060969032164696714,0.008348376554057188,0.1572724172201654,0.0
0.060947306269086156,0.008297951018566015,0.15727509942950005,0.0
0.06094676982721923,0.008388341473143277,0.15728690115057245,0.0
0.060962594862293586,0.008378953740472048,0.15727000323176424,0.0
0.0609550846761566,0.00831806758857579,0.15724210825468402,0.0
0.06095910799015856,0.008361787600730372,0.1572694667898973,0.0
0.060948647373753474,0.00838565926380864,0.15728153673190318,0.0
0.060935504548013754,0.008360982937929981,0.15725981083629262,0.0
0.06096205842042666,0.008380294845139366,0.1572576650688249,0.0
0.06098619830443839,0.008378953740472048,0.15727751341790122,0.0
0.06098029744390219,0.008370907112468138,0.15727509942950005,0.0
0.06094891559468694,0.008352668088992607,0.15727724519696776,0.0
0.06093523632708029,0.008334697286450539,0.15728636470870552,0.0
0.06096956860656364,0.008363396926331155,0.1572954842204433,0.0
0.060956694001757385,0.008346499007522943,0.1572769769760343,0.0
0.06094462405975152,0.008326114216579701,0.1573005804181791,0.0
0.060951597804021575,0.008336038391117857,0.15726007905722608,0.0
0.060982979653236825,0.008416772892090427,0.1572887786971067,0.0
0.0609314812340118,0.008301169669767579,0.15727670875510083,0.0
0.06092423926880828,0.008323968449111992,0.15727778163883468,0.0
0.06096500885069476,0.0083623240425973,0.1573330351511282,0.0
0.06096930038563018,0.008325041332845846,0.15728636470870552,0.0
