0.054079777488681965,0.019930692902886023,0.1575103291881477,0.0
0.05407843638401465,0.019926669588884068,0.15752052158361932,0.0
0.05408353258175046,0.019970121380105184,0.15754144281642948,0.0
0.05408755589575241,0.019959928984633564,0.15755324453750189,0.0
0.05409104276788744,0.01993632554248876,0.15753446907215943,0.0
0.054095870744689786,0.01990896700727546,0.15753715128149406,0.0
0.05410257626802638,0.019915672530612057,0.15754680723509876,0.0
0.05410364915176023,0.019900652158338087,0.15753634661869367,0.0
0.054095870744689786,0.019893410193134568,0.15751676649055082,0.0
0.05409104276788744,0.019874098285925183,0.1575170347114843,0.0
0.05408755589575241,0.019892605530334177,0.15752910465349015,0.0
0.05407629061654694,0.019909235228208925,0.15752078980455278,0.0
0.05409560252375632,0.019895555960602277,0.15751757115335122,0.0
0.05409238387255476,0.019887509332598367,0.15751086563001462,0.0
0.054087824116685876,0.019927742472617922,0.1575339326302925,0.0
0.05410123516335906,0.019919427623680548,0.15753044575815747,0.0
0.05409104276788744,0.019912722100343956,0.1575406381536291,0.0
0.05407736350028079,0.019900383937404623,0.1575634369329735,0.0
0.054089969884153585,0.019933643333154123,0.15756960601444317,0.0
0.05409372497722208,0.019980313775576804,0.1575768479796467,0.0
0.05409184743068783,0.019917550077146302,0.1575494894444334,0.0
0.05409694362842364,0.019914063205011275,0.15755351275843535,0.0
0.0540854101282847,0.01993417977502105,0.15758221239831596,0.0
0.054084069023617384,0.01994732260076077,0.15758006663084825,0.0
0.05409882117495789,0.019969584938238256,0.15760313363112613,0.0
0.05411169577976415,0.01997119426383904,0.15758543104951753,0.0
0.054110622896030296,0.01993257044942027,0.15757792086338054,0.0
0.05410713602389526,0.019953491682230436,0.15758811325885216,0.0
0.05409104276788744,0.01997280358943982,0.1575996467589911,0.0
0.05410364915176023,0.019985409973312614,0.157596696328723,0.0
0.05407843638401465,0.019972535368506357,0.15768199058556445,0.0
0.05408648301201856,0.019967439170770547,0.15769540163223764,0.0
0.054111964000697614,0.019953223461296972,0.15767635794596171,0.0
0.05407038975601074,0.019932302228486805,0.1576498040735488,0.0
0.054076827058413865,0.019960733647433955,0.1576860138995664,0.0
0.054110622896030296,0.01998889684544764,0.15770934912077775,0.0
0.05410928179136298,0.019976826903441776,0.15778525564494797,0.0
0.0540824596980166,0.019973340031306748,0.1577739903657425,0.0
0.05407414484907923,0.019987823961713787,0.15777720901694406,0.0
0.05407334018627884,0.020018937589995574,0.15777855012161138,0.0
0.05409238387255476,0.01999828457811887,0.1577820369937464,0.0
0.054106599582028334,0.02000418543865507,0.15777962300534523,0.0
0.054094261419089004,0.01998809218264725,0.15778257343561333,0.0
0.054107672465762195,0.01996690272890362,0.1577495822607973,0.0
0.05409452964002247,0.019956442112498536,0.15774180385372685,0.0
0.05410955001229644,0.019984605310512223,0.15775789710973467,0.0
0.054094261419089004,0.020002844333987753,0.15776594373773858,0.0
0.05408514190735124,0.019972267147572893,0.15777452680760942,0.0
0.05407521773281308,0.019968512054504402,0.15777801367974445,0.0
0.0540883605585528,0.01997065782197211,0.15780537221495775,0.0
0.05408728767481895,0.019985409973312614,0.1577938387148188,0.0
0.054094261419089004,0.019992651938516133,0.15775655600506736,0.0
0.054089165221353194,0.019981654880244122,0.15777720901694406,0.0
0.054089165221353194,0.019951345914762726,0.15778257343561333,0.0
0.054077631721214256,0.019993724822249988,0.15777801367974445,0.0
0.054068780430409955,0.019990506171048424,0.157770235272674,0.0
0.05404437232546476,0.020006867647989708,0.1577782819006779,0.0
0.05405671048840409,0.020035835508803786,0.1577946433776192,0.0
0.05407575417468001,0.020048978334543506,0.15781663749416322,0.0
0.05408943344228666,0.020023497345864456,0.15778713319148222,0.0
0.05408755589575241,0.02002752065986641,0.15774636360959574,0.0
0.0540706579769442,0.020012232066658982,0.15775709244693428,0.0
0.05407629061654694,0.01999238371758267,0.15775789710973467,0.0
0.05409533430282286,0.019959928984633564,0.15774421784212803,0.0
0.05407575417468001,0.019949736589161944,0.1577326843419891,0.0
0.054076827058413865,0.02005300164854546,0.1577474364933296,0.0
0.05406690288387571,0.0200615847184163,0.15767823549249596,0.0
0.05405536938373677,0.020035030846003395,0.15767072530635898,0.0
0.05407441307001269,0.020021083357463283,0.15770988556264467,0.0
0.05406985331414381,0.01999962568278619,0.15771203133011238,0.0
0.054085678349218166,0.020041736369339987,0.15771954151624937,0.0
0.05408299613988353,0.020006062985189317,0.1577096173417112,0.0
0.054059392697738726,0.020013036729459373,0.15772490593491864,0.0
0.054047590976666324,0.020006062985189317,0.15772946569078752,0.0
0.05405402827906945,0.020001503229320435,0.15772919746985406,0.0
0.05406824398854303,0.019958051438099318,0.15772356483025132,0.0
0.05405322361626906,0.01997924089184295,0.1577310750163883,0.0
0.05407629061654694,0.020026179555199093,0.15775387379573272,0.0
0.054041153674263195,0.01997199892663943,0.15778257343561333,0.0
0.05406395245360761,0.020013304950392836,0.15776567551680512,0.0
0.054061538465206435,0.019978168008109094,0.1577214190627836,0.0
0.05404866386040018,0.019957783217165855,0.1577267834814529,0.0
0.05403283882532582,0.019962074752101273,0.15774716827239613,0.0
0.054033911709059676,0.01998889684544764,0.15776969883080708,0.0
0.05404008079052934,0.01993632554248876,0.15781180951736087,0.0
0.054017818453051855,0.019903334367672724,0.15781288240109473,0.0
0.05403122949972504,0.019971462484772502,0.15781797859883054,0.0
0.05406100202333951,0.01997789978717563,0.1578161010522963,0.0
0.05404276299986398,0.019939544193690324,0.15782227013376596,0.0
0.05403578925559392,0.019927742472617922,0.15781797859883054,0.0
0.05404008079052934,0.019991847275715742,0.15782897565710255,0.0
0.05404356766266437,0.01996395229863552,0.15782227013376596,0.0
0.05403283882532582,0.01998219132211105,0.15782468412216713,0.0
0.05403552103466046,0.019999357461852725,0.15782870743616909,0.0
0.05402479219732191,0.019967439170770547,0.15780590865682467,0.0
0.05404142189519666,0.019964220519568983,0.1578085908661593,0.0
0.054058588034938335,0.020036640171604177,0.15776245686560356,0.0
0.054043299441730905,0.020013841392259764,0.15778552386588143,0.0
0.0540500049650675,0.020001771450253898,0.157788742517083,0.0
0.0540529553953356,0.020024838450531775,0.15780483577309082,0.0
0.05404490876733169,0.01999613881065116,0.157807249761492,0.0
0.05404061723239627,0.01996180653116781,0.15778820607521607,0.0
0.0540618066861399,0.019964488740502447,0.1577399263071926,0.0
0.05403954434866241,0.019941153519291106,0.15776084754000277,0.0
0.054037398581194704,0.01995027303102887,0.15777184459827479,0.0
0.05403793502306163,0.01997414469410714,0.15776594373773858,0.0
0.05403578925559392,0.01998594641517954,0.1577576288888012,0.0
0.054051346069734815,0.019972535368506357,0.15774394962119456,0.0
0.054015672685584146,0.019980581996510267,0.15778927895894992,0.0
0.054030961278791576,0.020007404089856635,0.1577664801796055,0.0
0.05402479219732191,0.01999399304318345,0.157759238214402,0.0
0.05401513624371722,0.019992651938516133,0.1577916929473511,0.0
0.05403793502306163,0.020043882136807696,0.1577828416565468,0.0
0.05404598165106554,0.020020546915596356,0.15776996705174054,0.0
0.0540529553953356,0.02002376556679792,0.15775521490040004,0.0
0.05405161429066828,0.020001503229320435,0.15774824115612998,0.0
0.054037398581194704,0.01998219132211105,0.15774502250492842,0.0
0.05403122949972504,0.01997789978717563,0.15774421784212803,0.0
0.054022914650787665,0.020000162124653116,0.1577495822607973,0.0
0.05403417992999314,0.020010354520124736,0.1577348301094568,0.0
0.0540255968601223,0.02001571893879401,0.15788288806472875,0.0
0.054037398581194704,0.020010354520124736,0.157866258366854,0.0
0.05403927612772895,0.02005005121827736,0.1578743049948579,0.0
0.05403793502306163,0.02006373048588401,0.15785177443644696,0.0
0.0540137951390499,0.019995870589717697,0.15784426425030998,0.0
0.054019159557719174,0.020002307892120826,0.1578582117388501,0.0
0.054009771825047945,0.020030471090134512,0.15787993763446065,0.0
0.054024255755454983,0.02003610372973725,0.15790863727434126,0.0
0.05403042483692465,0.02003100753200144,0.15791078304180897,0.0
0.054024255755454983,0.019999357461852725,0.1578973719951358,0.0
0.05402640152292269,0.01999962568278619,0.15792580341408294,0.0
0.05401728201118493,0.019983264205844904,0.15793680047235495,0.0
0.054019159557719174,0.0200106227410582,0.1579555759376974,0.0
0.05402613330198923,0.019999357461852725,0.15794350599569154,0.0
0.05401513624371722,0.019982727763977977,0.15795986747263283,0.0
0.054003870964511744,0.020013036729459373,0.1579542348330301,0.0
0.05400601673197945,0.01999157905478228,0.1579467246468931,0.0
0.054008430720380626,0.01996770739170401,0.15794216489102422,0.0
0.05402130532518688,0.02001142740385859,0.15795879458889897,0.0
0.05402452397638845,0.020010354520124736,0.15798052048450953,0.0
0.054020768883319956,0.019986751077979932,0.15797569250770718,0.0
0.05402023244145303,0.020001771450253898,0.15797757005424143,0.0
0.05402666974385616,0.020010086299191272,0.1579673776587698,0.0
0.05403417992999314,0.020007135868923172,0.15794404243755847,0.0
0.05404008079052934,0.019969584938238256,0.15799312686838232,0.0
0.054033107046259285,0.019962074752101273,0.1579837391357111,0.0
0.05402613330198923,0.019975485798774457,0.1580242404966641,0.0
0.054027206185723084,0.019988628624514178,0.1580124387755917,0.0
0.05403203416252543,0.020000698566520043,0.15799983239171891,0.0
0.05403766680212817,0.019995065926917306,0.157980788705443,0.0
0.054044104104531296,0.01998943328731457,0.1579091737162082,0.0
0.05402613330198923,0.019935252658754905,0.15788503383219646,0.0
0.05400655317384638,0.019938203089023006,0.1578973719951358,0.0
0.05403069305785811,0.020000966787453507,0.15792365764661523,0.0
0.054028010848523475,0.019992920159449597,0.1579054186231397,0.0
0.054025865081055766,0.019962074752101273,0.15788208340192836,0.0
0.05402398753452152,0.01995456456596429,0.15784748290151154,0.0
0.05402908373225733,0.01992103694928133,0.15784453247124344,0.0
0.054030156615991184,0.01990011571647116,0.15786438082031976,0.0
0.05402935195319079,0.019916477193412448,0.15786169861098512,0.0
0.05403283882532582,0.01993713020528915,0.15785633419231584,0.0
0.05402613330198923,0.019943299286758816,0.15784426425030998,0.0
0.05401942777865264,0.019909771670075852,0.1578418502619088,0.0
0.054033107046259285,0.019940348856490715,0.1578456053549773,0.0
0.054030156615991184,0.019948395484494626,0.1578426549247092,0.0
0.05402693796478962,0.019924255600482894,0.15783782694790685,0.0
0.054006821394779844,0.019876244053392892,0.15786384437845283,0.0
0.05399931120864286,0.01990011571647116,0.15788127873912797,0.0
0.054025060418255375,0.01993632554248876,0.15789093469273266,0.0
0.05403122949972504,0.01991245387941049,0.15788288806472875,0.0
0.05402747440665655,0.019887241111664903,0.1578751096576583,0.0
0.05402050066238649,0.01991513608874513,0.15787671898325908,0.0
0.054006821394779844,0.019922914495815576,0.15790675972780702,0.0
0.05400869894131409,0.019941958182091497,0.15792794918155065,0.0
0.05402747440665655,0.019930961123819486,0.15791373347207707,0.0
0.05404222655799705,0.019915404309678593,0.15789334868113383,0.0
0.05403981256959588,0.019956173891565072,0.1578802058553941,0.0
0.05402157354612035,0.01993632554248876,0.15787189100645674,0.0
0.05403552103466046,0.019925864926083676,0.15787779186699294,0.0
0.05402318287172113,0.019933106891287196,0.15787242744832367,0.0
0.054006821394779844,0.01994946836822848,0.15785606597138238,0.0
0.0540285472903904,0.019914867867811666,0.15784748290151154,0.0
0.054048395639466715,0.01992532848421675,0.15785552952951545,0.0
0.054040349011462804,0.019941958182091497,0.15786652658778746,0.0
0.05404088545332973,0.019962879414901664,0.15786786769245478,0.0
0.054041153674263195,0.019936057321555296,0.15787189100645674,0.0
0.054048395639466715,0.019915672530612057,0.1578729638901906,0.0
0.054043299441730905,0.019911380995676634,0.1578692087971221,0.0
0.05402693796478962,0.019933106891287196,0.15788261984379529,0.0
0.05402318287172113,0.019937934868089542,0.1578906664717992,0.0
0.05401513624371722,0.019904943693273506,0.15788637493686378,0.0
0.054015672685584146,0.01989206908846725,0.15789549444860154,0.0
0.054036862139327776,0.019924792042349822,0.15790380929753892,0.0
0.05402479219732191,0.01993713020528915,0.15789120291366612,0.0
0.05400708961571331,0.019959392542766637,0.15791963433261327,0.0
0.05400306630171135,0.019947054379827307,0.15791856144887942,0.0
0.053995287894640906,0.01993337511222066,0.15791453813487746,0.0
0.05400118875517711,0.019972535368506357,0.15789683555326886,0.0
0.05400869894131409,0.019994261264116915,0.15790515040220623,0.0
0.054015672685584146,0.0199596607637001,0.15792955850715143,0.0
0.05402452397638845,0.0199655616242363,0.15794404243755847,0.0
0.054013526918116436,0.019965829845169765,0.15792553519314947,0.0
0.05400950360411448,0.019927742472617922,0.1579239258675487,0.0
0.05401218581344912,0.019988628624514178,0.1579268762978168,0.0
0.054017013790251464,0.02000418543865507,0.1579201707744802,0.0
0.054013526918116436,0.02000552654332239,0.15791614746047825,0.0
0.05401513624371722,0.01995536922876468,0.1579349229258207,0.0
0.05402398753452152,0.019976558682508312,0.1579400191235565,0.0
0.05402747440665655,0.019956710333432,0.15793733691422188,0.0
0.05403069305785811,0.019933106891287196,0.15790944193714165,0.0
0.05401111292971526,0.01993713020528915,0.15790944193714165,0.0
0.05400360274357828,0.01994517683329306,0.1579378733560888,0.0
0.054008430720380626,0.01993632554248876,0.15795316194929623,0.0
0.054016745569318,0.01996690272890362,0.1579453835422258,0.0
0.054017818453051855,0.019938739530889933,0.15791078304180897,0.0
0.053990191696905096,0.01993847130995647,0.15793089961181875,0.0
0.05400869894131409,0.01996046542650049,0.15796415900756824,0.0
0.05399850654584247,0.01996985315917172,0.15795369839116316,0.0
0.05400574851104599,0.019945981496093453,0.1579534301702297,0.0
0.054017818453051855,0.019938203089023006,0.15796576833316903,0.0
0.05400521206917906,0.019933106891287196,0.1579601356935663,0.0
0.05402479219732191,0.01995456456596429,0.15797837471704182,0.0
0.05403659391839431,0.019963147635835128,0.15798427557757802,0.0
0.05402479219732191,0.019945445054226525,0.15799071287998115,0.0
0.054012722255316045,0.019931497565686414,0.15799983239171891,0.0
0.05401138115064873,0.019961270089300882,0.1580199489617287,0.0
0.054000384092376716,0.01997119426383904,0.15801592564772673,0.0
0.05400092053424364,0.019964488740502447,0.15799527263585003,0.0
0.054003334522644816,0.019926669588884068,0.1579896399962473,0.0
0.05400521206917906,0.019978168008109094,0.15798320269384417,0.0
0.054001725197044034,0.01997199892663943,0.15798615312411227,0.0
0.05400092053424364,0.01996475696143591,0.15797005986810445,0.0
0.05399716544117515,0.01997199892663943,0.15798454379851148,0.0
0.054005480290112526,0.019988628624514178,0.15801351165932556,0.0
0.05402184176705381,0.019981118438377195,0.15801297521745863,0.0
0.054003870964511744,0.01992532848421675,0.15800305104292048,0.0
0.054020768883319956,0.019955101007831218,0.158021290066396,0.0
0.05399099635970549,0.019979509112776413,0.15799500441491657,0.0
0.05400065231331018,0.02006614447428518,0.15801646208959366,0.0
0.05400011587144325,0.020038517718138422,0.15798642134504573,0.0
0.05398831415037085,0.01999828457811887,0.15798400735664456,0.0
0.05399394678997359,0.019961270089300882,0.15798990821718076,0.0
0.054003334522644816,0.019982459543044513,0.157991785763715,0.0
0.0540285472903904,0.01997575401970792,0.157991785763715,0.0
0.05400655317384638,0.01995027303102887,0.15800170993825316,0.0
0.05399099635970549,0.019967439170770547,0.15800707435692243,0.0
0.05400065231331018,0.019971730705705966,0.15800251460105355,0.0
0.053996628999308224,0.020026179555199093,0.15803336000840187,0.0
0.053976244208364985,0.019999893903719652,0.15802102184546254,0.0
0.05399287390623973,0.020007135868923172,0.15801646208959366,0.0
0.05396122383609102,0.019969316717304793,0.15803926086893808,0.0
0.053960150952357164,0.019981923101177586,0.1580870041950946,0.0
0.05397570776649806,0.019992651938516133,0.15809344149749774,0.0
0.05399636077837476,0.019982459543044513,0.15810121990456819,0.0
0.05400923538318102,0.019977363345308703,0.1581055114395036,0.0
0.0540019934179775,0.02000043034558658,0.15809022284629617,0.0
0.053998774766775934,0.019991310833848815,0.15807144738095372,0.0
0.0540019934179775,0.019958051438099318,0.1580722520437541,0.0
0.054002529859844425,0.019944640391426134,0.15807761646242338,0.0
0.05399475145277398,0.019998821019985798,0.15810524321857014,0.0
0.05401004004598141,0.019991847275715742,0.15811087585817288,0.0
0.054014063359983364,0.019957783217165855,0.15811463095124137,0.0
0.053985095499169286,0.019964488740502447,0.15814520813765623,0.0
0.05398965525503817,0.019996943473451552,0.15817632176593802,0.0
0.05400011587144325,0.01998594641517954,0.15816773869606718,0.0
0.05400655317384638,0.020003648996788144,0.15816291071926483,0.0
0.053985095499169286,0.019967170949837083,0.15814011193992042,0.0
0.0539960925574413,0.020008745194523954,0.15812535978857992,0.0
0.053991532801572414,0.020006062985189317,0.15811168052097327,0.0
0.0540196959995861,0.01995161413569619,0.1580797622298911,0.0
0.05401004004598141,0.01989287375126764,0.15808298088109266,0.0
0.05398992347597163,0.019925596705150213,0.15812589623044684,0.0
0.05399636077837476,0.019971462484772502,0.15814333059112198,0.0
0.05400011587144325,0.019976022240641385,0.15815379120752707,0.0
0.05400118875517711,0.019934447995954514,0.15814815856792433,0.0
0.053990191696905096,0.019939007751823397,0.15815915562619634,0.0
0.05399931120864286,0.01998809218264725,0.1581535229865936,0.0
0.05399931120864286,0.01995456456596429,0.1581387708352531,0.0
0.05401647734838454,0.019922646274882112,0.15816291071926483,0.0
0.05402398753452152,0.01995241879849658,0.15817310311473645,0.0
0.054018623115852246,0.019934447995954514,0.15813447930031768,0.0
0.053998238324909006,0.019978168008109094,0.15814333059112198,0.0
0.054003334522644816,0.01998943328731457,0.15816210605646444,0.0
0.0540137951390499,0.01999399304318345,0.15817551710313763,0.0
0.054003334522644816,0.020011695624792054,0.15817685820780494,0.0
0.053981340406100795,0.019971462484772502,0.1581682751379341,0.0
0.05397651242929845,0.019932838670353732,0.15816183783553098,0.0
0.05399072813877202,0.01992988824008563,0.1581661293704664,0.0
0.05402184176705381,0.019971730705705966,0.15817605354500455,0.0
0.054028815511323866,0.019965829845169765,0.15815218188192628,0.0
0.05398885059223778,0.019916208972478984,0.1581720302310026,0.0
0.05398160862703426,0.019939812414623788,0.15819751121968165,0.0
0.0540019934179775,0.01994517683329306,0.15816666581233332,0.0
0.053980535743300403,0.019962074752101273,0.15814601280045662,0.0
0.05396551537102644,0.01993632554248876,0.1581425259283216,0.0
0.053975439545564594,0.01991299032127742,0.15813930727712003,0.0
0.05398294973170158,0.019920500507414403,0.15815325476566014,0.0
0.05398187684796772,0.019941958182091497,0.15818114974274036,0.0
0.05397302555716342,0.01995536922876468,0.1581800768590065,0.0
0.05397248911529649,0.01994061707742418,0.15818329551020807,0.0
0.05398804592943739,0.01992023228648094,0.15820394852208478,0.0
0.053980535743300403,0.019959928984633564,0.15822647908049572,0.0
0.05397946285956655,0.01993927597275686,0.15823533037130003,0.0
0.053978389975832694,0.019915672530612057,0.15823908546436852,0.0
0.05398026752236694,0.01992237805394865,0.15823935368530198,0.0
0.05399126458063895,0.019967439170770547,0.15824713209237243,0.0
0.053980535743300403,0.019971462484772502,0.15824927785984014,0.0
0.05397892641769962,0.019930961123819486,0.15824632742957204,0.0
0.05398590016196968,0.01989877461180384,0.15823345282476578,0.0
0.05398670482477007,0.019923719158615967,0.15823050239449768,0.0
0.05398750948757046,0.019976022240641385,0.15824391344117086,0.0
0.05399475145277398,0.019956710333432,0.15826376179024718,0.0
0.05399475145277398,0.019932838670353732,0.15826537111584796,0.0
0.053980535743300403,0.019940348856490715,0.15827958682532153,0.0
0.05398590016196968,0.019918622960880157,0.1582806597090554,0.0
0.05399770188304208,0.01993257044942027,0.1582806597090554,0.0
0.053977048871165376,0.01992237805394865,0.15828226903465617,0.0
0.0539569323011556,0.019919964065547476,0.15828709701145852,0.0
0.0539716844524961,0.019919964065547476,0.1582672486623822,0.0
0.05398911881317124,0.01992318271674904,0.15824793675517282,0.0
0.05396953868502839,0.019896628844336132,0.15824257233650355,0.0
0.05396417426635912,0.01990816234447507,0.15824927785984014,0.0
0.05398160862703426,0.01993498443782144,0.1582474003133059,0.0
0.05397570776649806,0.01993498443782144,0.1582533011738421,0.0
0.05398241328983465,0.019954028124097363,0.15825598338317673,0.0
0.053958809847689845,0.01993847130995647,0.15824123123183623,0.0
0.05396712469662722,0.019949736589161944,0.15827717283692036,0.0
0.053969806905961856,0.019963415856768592,0.1582954118603959,0.0
0.05398992347597163,0.019948127263561162,0.15828736523239198,0.0
0.053942716591682024,0.019914599646878202,0.15827341774385187,0.0
0.053945667021950125,0.019961270089300882,0.15831096867453678,0.0
0.05399099635970549,0.01996046542650049,0.15833135346548002,0.0
0.05398590016196968,0.019980313775576804,0.1582967529650632,0.0
0.0539716844524961,0.019953491682230436,0.1583013127209321,0.0
0.05397436666183074,0.019981654880244122,0.15830962756986947,0.0
0.05397302555716342,0.020002039671187362,0.15829621652319628,0.0
0.05396551537102644,0.020015450717860546,0.15827797749972075,0.0
0.053978389975832694,0.02002001047372943,0.15827261308105148,0.0
0.05400735783664677,0.020044418578674623,0.1582605431390456,0.0
0.05397785353396577,0.020020278694662892,0.15824686387143896,0.0
0.05395934628955677,0.019990774391981887,0.15825866559251137,0.0
0.05396363782449219,0.019972535368506357,0.15826563933678142,0.0
0.05396444248729258,0.020003112554921217,0.15825866559251137,0.0
0.053958809847689845,0.020000698566520043,0.15823962190623544,0.0
0.053966856475693756,0.019998016357185407,0.1582621524646464,0.0
0.053960955615157555,0.019950004810095408,0.15825222829010824,0.0
0.05396632003382683,0.01995590567063161,0.15825517872037634,0.0
0.05396444248729258,0.01997789978717563,0.15825517872037634,0.0
0.05395210432435325,0.019956442112498536,0.15825061896450746,0.0
0.053978389975832694,0.0199508094728958,0.158250350743574,0.0
0.05397141623156264,0.019978436229042558,0.15825651982504366,0.0
0.0539539818708875,0.01998648285704647,0.15825142362730785,0.0
0.05395344542902057,0.019969316717304793,0.15825517872037634,0.0
0.053952908987153644,0.019947054379827307,0.158272344860118,0.0
0.05397651242929845,0.020019742252795965,0.15830614069773444,0.0
0.053974098440897275,0.02004710078800926,0.1582895109998597,0.0
0.05397678065023191,0.020058366067214735,0.15830479959306712,0.0
0.05395344542902057,0.020024838450531775,0.15830023983719824,0.0
0.05395612763835521,0.019994261264116915,0.15829138854639394,0.0
0.05395022677781901,0.02002591133426563,0.1583182106397403,0.0
0.05396551537102644,0.020022156241197138,0.1583359132213489,0.0
0.05395639585928867,0.020006599427056244,0.1583190153025407,0.0
0.05393440174274465,0.01997924089184295,0.1583056042558675,0.0
0.05392796444034152,0.01999023795011496,0.15833510855854852,0.0
0.05393815683581314,0.019990506171048424,0.1583544204657579,0.0
0.053939766161413924,0.019950541251962335,0.15833188990734695,0.0
0.05394620346381705,0.01999908924091926,0.15836273531469527,0.0
0.053959614510490236,0.020023497345864456,0.15836300353562874,0.0
0.05394673990568398,0.020030471090134512,0.15834959248895555,0.0
0.05394727634755091,0.020014109613193228,0.15835549334949175,0.0
0.05394700812661744,0.019985409973312614,0.15837265948923343,0.0
0.05395478653368789,0.019995870589717697,0.1583611259890945,0.0
0.05393735217301275,0.019991310833848815,0.15834315518655243,0.0
0.05393949794048046,0.019996675252518088,0.15834100941908472,0.0
0.0539421801498151,0.019953223461296972,0.15832545260494382,0.0
0.05394405769634934,0.019959928984633564,0.1583316216864135,0.0
0.053943521254482416,0.01999023795011496,0.15835629801229215,0.0
0.05392394112633957,0.01998594641517954,0.1583603213262941,0.0
0.05393788861487968,0.019984605310512223,0.15834664205868745,0.0
0.05395210432435325,0.020002039671187362,0.15834235052375203,0.0
0.053945667021950125,0.020034226183203004,0.15836219887282835,0.0
0.05393011020780923,0.020018132927195183,0.158368367954298,0.0
0.05392715977754113,0.019989969729181496,0.1583780239079027,0.0
0.05394030260328085,0.019996675252518088,0.15836944083803187,0.0
0.053940570824214315,0.0200224244621306,0.15837051372176572,0.0
0.053939229719547,0.019987823961713787,0.1583742688148342,0.0
0.05393440174274465,0.01998085021744373,0.15837936501257002,0.0
0.05394244837074856,0.019988360403580714,0.15839787225697902,0.0
0.05395129966155286,0.019977631566242167,0.15835763911695946,0.0
0.05393359707994426,0.01996985315917172,0.15831418732573835,0.0
0.053942716591682024,0.019999357461852725,0.15831981996534109,0.0
0.053936815731145824,0.019961538310234346,0.1583219657328088,0.0
0.0539510314406194,0.019992920159449597,0.15832598904681075,0.0
0.053951567882486326,0.01999399304318345,0.1583123097792041,0.0
0.053945667021950125,0.019966366287036692,0.1582967529650632,0.0
0.05394620346381705,0.019956173891565072,0.15828897455799276,0.0
0.053943521254482416,0.019987555740780323,0.15829943517439785,0.0
0.05395639585928867,0.020018132927195183,0.1582731495229184,0.0
0.05393359707994426,0.01996770739170401,0.1582634935693137,0.0
0.05392850088220845,0.019980581996510267,0.1582967529650632,0.0
0.0539569323011556,0.02002161979933021,0.15831552843040567,0.0
0.05395210432435325,0.020004990101455462,0.15831767419787338,0.0
0.05394915389408515,0.01999399304318345,0.15832303861654265,0.0
0.05395478653368789,0.019967170949837083,0.15831284622107103,0.0
0.05392555045194035,0.01995885610089971,0.15830801824426868,0.0
0.053943521254482416,0.020015450717860546,0.15831767419787338,0.0
0.053958809847689845,0.019999893903719652,0.15830077627906516,0.0
0.05392340468447264,0.019958587879966246,0.15831338266293796,0.0
0.05393493818461158,0.019975217577840994,0.15835924844256025,0.0
0.05394727634755091,0.02000418543865507,0.15835468868669136,0.0
0.053955054754621354,0.019993724822249988,0.15834503273308667,0.0
0.05395532297555482,0.01996985315917172,0.15834530095402014,0.0
0.053932524196210405,0.01994517683329306,0.15835576157042522,0.0
0.053936815731145824,0.01996475696143591,0.1583640764193626,0.0
0.05394539880101666,0.019989969729181496,0.15837480525670114,0.0
0.053943521254482416,0.019991310833848815,0.15836756329149762,0.0
0.053928232661274986,0.01995590567063161,0.15837829212883617,0.0
0.05392876910314191,0.01997414469410714,0.158386875198707,0.0
0.05393601106834543,0.019975217577840994,0.15837641458230192,0.0
0.05393869327768007,0.01993927597275686,0.15837346415203382,0.0
0.053928232661274986,0.01994437217049267,0.15836193065189488,0.0
0.05393198775434348,0.019982727763977977,0.1583691726170984,0.0
0.05392394112633957,0.019975217577840994,0.15836595396589684,0.0
0.05393064664967616,0.01993257044942027,0.15837775568696924,0.0
0.053941375487014706,0.019920500507414403,0.1583801696753704,0.0
0.05394539880101666,0.01994946836822848,0.15839223961737628,0.0
0.05394969033595208,0.01997360825224021,0.15836970905896533,0.0
0.053933328859010796,0.019965829845169765,0.1583624670937618,0.0
0.05393413352181119,0.01992693780981753,0.15836890439616494,0.0
0.05393574284741197,0.019941958182091497,0.15835924844256025,0.0
0.053927427998474595,0.019960197205567028,0.15834798316335477,0.0
0.05395129966155286,0.01994276284489189,0.1583552251285583,0.0
0.05396229671982487,0.019907089460741215,0.15835307936109058,0.0
0.053955054754621354,0.019917550077146302,0.15835898022162678,0.0
0.05393788861487968,0.019973340031306748,0.15835388402389097,0.0
0.053910798300599846,0.019935789100621833,0.158346373837754,0.0
0.05392206357980532,0.019927206030750995,0.15835710267509254,0.0
0.0539451305800832,0.01993042468195256,0.1583485196052217,0.0
0.05394888567315169,0.019991310833848815,0.15833188990734695,0.0
0.05395129966155286,0.019993724822249988,0.1583300123608127,0.0
0.05392581867287381,0.01994946836822848,0.15834959248895555,0.0
0.05394003438234739,0.019938203089023006,0.15835844377975986,0.0
0.05395478653368789,0.019946249717026916,0.15835307936109058,0.0
0.053925282231006885,0.019959392542766637,0.15837560991950153,0.0
0.053935474626478505,0.019981118438377195,0.15837614636136846,0.0
0.05394915389408515,0.019977631566242167,0.15837668280323539,0.0
0.05394003438234739,0.019979777333709876,0.15838312010563851,0.0
0.053936279289278896,0.01997789978717563,0.15837105016363265,0.0
0.05393198775434348,0.01991808651901323,0.15834691027962092,0.0
0.05393869327768007,0.019943031065825352,0.1583581755588264,0.0
0.05394244837074856,0.019966366287036692,0.15835978488442717,0.0
0.05393145131247655,0.01996100186836742,0.1583506653726894,0.0
0.053909188974999064,0.019947590821694235,0.15833215812828041,0.0
0.05391348050993448,0.019963147635835128,0.15831499198853874,0.0
0.05393601106834543,0.01995885610089971,0.1583249161630769,0.0
0.05393359707994426,0.019987823961713787,0.1583182106397403,0.0
0.053920990696071466,0.019969316717304793,0.15827824572065421,0.0
0.05393896149861353,0.019953223461296972,0.1582592020343783,0.0
0.05392796444034152,0.019914331425944738,0.1582575927087775,0.0
0.053943521254482416,0.01994651793796038,0.15826671222051528,0.0
0.05396068739422409,0.019973071810373284,0.15825517872037634,0.0
0.053936279289278896,0.01994946836822848,0.15824310877837047,0.0
0.0539177720448699,0.019906553018874288,0.1582710037554507,0.0
0.053932524196210405,0.0199478590426277,0.15826161602277947,0.0
0.05393735217301275,0.01996904849637133,0.15821575024315718,0.0
0.053927427998474595,0.019961538310234346,0.1581993887662159,0.0
0.053922331800738785,0.01995241879849658,0.15821279981288908,0.0
0.05393225597527694,0.019986214636113005,0.1582200417780926,0.0
0.053947812789417834,0.020052465206678534,0.1582237968711611,0.0
0.053952908987153644,0.02003529906693686,0.1582339892666327,0.0
0.053950763219685935,0.02000338077585468,0.158231843499165,0.0
0.053949958556885544,0.020017060043461328,0.15823130705729807,0.0
0.05393601106834543,0.0200165236015944,0.1582149455803568,0.0
0.05394593524288359,0.02001276850852591,0.15821279981288908,0.0
0.05394539880101666,0.019996675252518088,0.15820099809181667,0.0
0.053942716591682024,0.019998016357185407,0.15818812348701042,0.0
0.05394191192888163,0.020000698566520043,0.1581771264287384,0.0
0.05393145131247655,0.01994437217049267,0.15817015268446835,0.0
0.05394539880101666,0.01998380064771183,0.15821735956875796,0.0
0.05395639585928867,0.020010354520124736,0.15821843245249181,0.0
0.05396658825476029,0.020025643113332166,0.15821172692915522,0.0
0.05397436666183074,0.01999828457811887,0.1581926832428793,0.0
0.0539569323011556,0.01994732260076077,0.15817900397527265,0.0
0.05393735217301275,0.019954296345030827,0.15818705060327656,0.0
0.05393896149861353,0.0200076723107901,0.15818839170794388,0.0
0.0539480810103513,0.0200076723107901,0.1581867823823431,0.0
0.053941375487014706,0.019988360403580714,0.15819885232434897,0.0
0.05393306063807733,0.01995241879849658,0.15821896889435874,0.0
0.05392930554500884,0.019956978554365463,0.1582095811616875,0.0
0.05393091487060962,0.019993724822249988,0.15820207097555053,0.0
0.053926086893807276,0.01996046542650049,0.15820904471982059,0.0
0.0539421801498151,0.01999023795011496,0.15823962190623544,0.0
0.05390382455632979,0.019996943473451552,0.15825517872037634,0.0
0.05392876910314191,0.020012232066658982,0.1582634935693137,0.0
0.05392555045194035,0.019977631566242167,0.15826751688331567,0.0
0.05393815683581314,0.02000123500838697,0.15828092792998885,0.0
0.05393091487060962,0.019996675252518088,0.15828548768585773,0.0
0.05391991781233761,0.020014109613193228,0.15828441480212388,0.0
0.05392555045194035,0.020003648996788144,0.1582865605695916,0.0
0.053919381370470684,0.01997360825224021,0.15828763345332544,0.0
0.05394030260328085,0.019988628624514178,0.1583085546861356,0.0
0.053935474626478505,0.020004990101455462,0.15831552843040567,0.0
0.05393949794048046,0.02000928163639088,0.15832062462814148,0.0
0.05393574284741197,0.019968243833570938,0.1582997033953313,0.0
0.05393198775434348,0.019951077693829262,0.15829782584879706,0.0
0.0539148216146018,0.01998433708957876,0.15831499198853874,0.0
0.053935474626478505,0.019992920159449597,0.1583308170236131,0.0
0.053937620393946215,0.019959124321833173,0.15833725432601622,0.0
0.05392045425420454,0.01992237805394865,0.15832733015147807,0.0
0.05396068739422409,0.019994261264116915,0.1583359132213489,0.0
0.053966051812893365,0.019959124321833173,0.1583115051164037,0.0
0.053939766161413924,0.0199596607637001,0.15830748180240176,0.0
0.05394378947541588,0.019947590821694235,0.15831552843040567,0.0
0.0539510314406194,0.019983264205844904,0.1583064089186679,0.0
0.05394083904514778,0.019954832786897754,0.15831365088387142,0.0
0.05394110726608124,0.019944640391426134,0.15831472376760528,0.0
0.05394969033595208,0.019932302228486805,0.15833028058174617,0.0
0.05396417426635912,0.019975217577840994,0.15831847886067377,0.0
0.05396846580129454,0.019957246775298927,0.15829031566266008,0.0
0.053953713649954035,0.01997119426383904,0.1582769046159869,0.0
0.05395183610341979,0.019973071810373284,0.1582849512439908,0.0
0.05396444248729258,0.01998943328731457,0.15829407075572857,0.0
0.05396202849889141,0.02003100753200144,0.15832357505840958,0.0
0.05395746874302253,0.019979509112776413,0.1582954118603959,0.0
0.053931719533410014,0.0199655616242363,0.15827556351131958,0.0
0.05390328811446286,0.019969584938238256,0.15831177333733717,0.0
0.05393306063807733,0.02001571893879401,0.15834610561682053,0.0
0.05392689155660767,0.019990774391981887,0.15833028058174617,0.0
0.05392474578913996,0.01997870444997602,0.15832840303521192,0.0
0.05393145131247655,0.019990774391981887,0.158320356407208,0.0
0.05394834923128476,0.02002886176453373,0.15833779076788315,0.0
0.05393359707994426,0.019967975612637474,0.15832223395374226,0.0
0.05393815683581314,0.019963415856768592,0.15832169751187533,0.0
0.05393279241714387,0.0199626111939682,0.15832518438401036,0.0
0.05393306063807733,0.019974681135974066,0.15832437972120997,0.0
0.05394164370794817,0.019959392542766637,0.15828763345332544,0.0
0.053919381370470684,0.01994517683329306,0.15829943517439785,0.0
0.053926623335674204,0.01993498443782144,0.1583233068374761,0.0
0.05393869327768007,0.019968780275437865,0.15832089284907494,0.0
0.053933328859010796,0.019975217577840994,0.15829702118599667,0.0
0.05391750382393644,0.019974681135974066,0.15827878216252114,0.0
0.05391857670767029,0.01996046542650049,0.1582828054765231,0.0
0.05392286824260571,0.01996609806610323,0.15828843811612583,0.0
0.053915894498335656,0.019920768728347867,0.15828039148812192,0.0
0.05389282749805778,0.019908430565408534,0.15829192498826086,0.0
0.053910798300599846,0.019952955240363508,0.15833323101201427,0.0
0.053905702102864037,0.019975217577840994,0.15831365088387142,0.0
0.05390945719593253,0.019999357461852725,0.158327866593345,0.0
0.05389792369579359,0.01996985315917172,0.15832518438401036,0.0
0.05389819191672705,0.01994061707742418,0.15831660131413952,0.0
0.05390838431219867,0.019959124321833173,0.15831794241880684,0.0
0.053899801242327836,0.019944908612359598,0.1583026538255994,0.0
0.05387700246298342,0.01993847130995647,0.158327866593345,0.0
0.053929573765942304,0.01996770739170401,0.15833188990734695,0.0
0.053909993637799455,0.019911380995676634,0.1582954118603959,0.0
0.053915894498335656,0.019988360403580714,0.15832250217467572,0.0
0.05391750382393644,0.020002039671187362,0.15831633309320606,0.0
0.05392420934727303,0.019977363345308703,0.1583270619305446,0.0
0.053928232661274986,0.019961270089300882,0.15833564500041544,0.0
0.05392903732407538,0.01997924089184295,0.15833108524454656,0.0
0.0538971190329932,0.019939007751823397,0.15830077627906516,0.0
0.053891218172457,0.01994651793796038,0.15831579665133913,0.0
0.053911334742466774,0.019919427623680548,0.15833510855854852,0.0
0.053909993637799455,0.019945981496093453,0.15833242634921388,0.0
0.053901142346995154,0.019948127263561162,0.1583396683144174,0.0
0.05392340468447264,0.01996609806610323,0.15833430389574812,0.0
0.05392420934727303,0.019928010693551386,0.15831660131413952,0.0
0.05390141056792862,0.019917013635279375,0.1583064089186679,0.0
0.053912139405267165,0.019945981496093453,0.1583174059769399,0.0
0.05392286824260571,0.019965829845169765,0.1583300123608127,0.0
0.05390328811446286,0.01993713020528915,0.15833028058174617,0.0
0.05389926480046091,0.019949736589161944,0.15833779076788315,0.0
0.053920186033271075,0.019984873531445686,0.1583396683144174,0.0
0.05391991781233761,0.01996046542650049,0.15834127764001818,0.0
0.05392555045194035,0.019954028124097363,0.15836273531469527,0.0
0.05393493818461158,0.019971462484772502,0.15835871200069332,0.0
0.05391669916113605,0.01997280358943982,0.15834127764001818,0.0
0.05391696738206951,0.01996395229863552,0.1583552251285583,0.0
0.053926086893807276,0.019955101007831218,0.15836756329149762,0.0
0.05392876910314191,0.01998514175237915,0.1583825836637716,0.0
0.053915894498335656,0.020016791822527864,0.15839304428017667,0.0
0.05392340468447264,0.020009013415457418,0.15839679937324516,0.0
0.05392555045194035,0.01997360825224021,0.15838928918710818,0.0
0.05393386530087772,0.019962879414901664,0.15839223961737628,0.0
0.05395773696395599,0.02000981807825781,0.15839519004764438,0.0
0.05391669916113605,0.019990774391981887,0.15839626293137823,0.0
0.05392260002167225,0.020028325322666803,0.15841155152458566,0.0
0.0539421801498151,0.0200106227410582,0.15840511422218254,0.0
0.05396256494075834,0.020027788880799875,0.15841235618738606,0.0
0.05390543388193057,0.01997199892663943,0.15840001802444673,0.0
0.05392501401007342,0.020018401148128646,0.15843595962953086,0.0
0.05395210432435325,0.02002376556679792,0.15842496257125885,0.0
0.053951567882486326,0.020001503229320435,0.15840779643151717,0.0
0.05393869327768007,0.019998016357185407,0.15842040281538997,0.0
0.05394539880101666,0.020004453659588535,0.15841745238512187,0.0
0.05394030260328085,0.019984605310512223,0.15843327742019622,0.0
0.05392394112633957,0.019988628624514178,0.15845607619954064,0.0
0.05392286824260571,0.020051660543878143,0.15844293337380091,0.0
0.053935474626478505,0.02003315329946915,0.15845098000180483,0.0
0.05392394112633957,0.020007404089856635,0.15846787792061304,0.0
0.05392930554500884,0.020020278694662892,0.1584896038162236,0.0
0.05393279241714387,0.020015450717860546,0.1584799478626189,0.0
0.05392796444034152,0.019991310833848815,0.1584689508043469,0.0
0.05393735217301275,0.019982727763977977,0.15846063595540952,0.0
0.053926623335674204,0.01997360825224021,0.15844507914126862,0.0
0.053943521254482416,0.02001437783412669,0.1584356914085974,0.0
0.05398187684796772,0.02002001047372943,0.15840350489658175,0.0
0.053909188974999064,0.019968780275437865,0.15839787225697902,0.0
0.053914285172734874,0.019997748136251943,0.1584378371760651,0.0
0.053920186033271075,0.019996407031584625,0.15842496257125885,0.0
0.053909188974999064,0.01999962568278619,0.15843300919926276,0.0
0.05391535805646873,0.020010354520124736,0.15842844944339388,0.0
0.05392903732407538,0.020006867647989708,0.15843595962953086,0.0
0.05390650676566443,0.0200135731713263,0.15842147569912382,0.0
0.053894705044592026,0.020000698566520043,0.1584563444204741,0.0
0.05391053007966638,0.020011159182925127,0.15846170883914337,0.0
0.0539118711843337,0.020012232066658982,0.15845393043207293,0.0
0.053917235603002975,0.020033689741336076,0.15846331816474415,0.0
0.0539148216146018,0.020010354520124736,0.15844990711807097,0.0
0.053915089835535265,0.020001503229320435,0.15843971472259935,0.0
0.053907847870331746,0.019979509112776413,0.15845178466460522,0.0
0.05389872835859398,0.020041736369339987,0.1584622452810103,0.0
0.05391401695180141,0.0200704360092206,0.15847002368808075,0.0
0.05393064664967616,0.020026179555199093,0.15847458344394963,0.0
0.05393601106834543,0.019992920159449597,0.15848906737435667,0.0
0.05393493818461158,0.02002296090399753,0.15848558050222164,0.0
0.05392876910314191,0.02001437783412669,0.15847351056021577,0.0
0.05392045425420454,0.020015450717860546,0.15850328308383024,0.0
0.05391696738206951,0.02001571893879401,0.15850891572343298,0.0
0.05391857670767029,0.02002510667146524,0.15850381952569717,0.0
0.0539236729054061,0.02005219698574507,0.1585132072583684,0.0
0.05389550970739242,0.020035030846003395,0.15851562124676957,0.0
0.053929573765942304,0.020021083357463283,0.15852179032823924,0.0
0.05393145131247655,0.01999238371758267,0.1585161576886365,0.0
0.05392206357980532,0.020037176613471104,0.1585317145027774,0.0
0.05391616271926912,0.02000338077585468,0.15853520137491242,0.0
0.053933328859010796,0.020017596485328255,0.15854700309598482,0.0
0.053936815731145824,0.020004721880522,0.15853815180518052,0.0
0.053952908987153644,0.020043882136807696,0.15852849585157583,0.0
0.05394110726608124,0.02003824949720496,0.1585073063978322,0.0
0.05394083904514778,0.020004990101455462,0.15851937633983806,0.0
0.05393440174274465,0.019976022240641385,0.15850998860716684,0.0
0.053920722475138,0.02003824949720496,0.15851588946770304,0.0
0.0539177720448699,0.020037176613471104,0.15848826271155628,0.0
0.05393198775434348,0.020027788880799875,0.15846278172287723,0.0
0.05392286824260571,0.02000338077585468,0.15846036773447605,0.0
0.05392394112633957,0.020002039671187362,0.15845741730420795,0.0
0.05392260002167225,0.01998299598491144,0.1584289858852608,0.0
0.05393601106834543,0.020007404089856635,0.15845312576927253,0.0
0.053930378428742695,0.020011963845725518,0.1584820936300866,0.0
0.05392340468447264,0.020010086299191272,0.15848853093248974,0.0
0.053915894498335656,0.020001503229320435,0.158471901234615,0.0
0.053926623335674204,0.020064803369617863,0.15847807031608466,0.0
0.05391535805646873,0.020042272811206914,0.15847351056021577,0.0
0.05392501401007342,0.020032885078535685,0.1584732423392823,0.0
0.05391321228900102,0.020035030846003395,0.15847538810675002,0.0
0.053920722475138,0.02000633120612278,0.15847511988581656,0.0
0.05393869327768007,0.01999023795011496,0.15845768552514142,0.0
0.05394003438234739,0.019984605310512223,0.1584525893274056,0.0
0.05392474578913996,0.020014109613193228,0.1584681461415465,0.0
0.053926623335674204,0.020024033787731384,0.15848987203715706,0.0
0.0539089207540656,0.019977363345308703,0.15847672921141734,0.0
0.053926086893807276,0.019993456601316524,0.15848155718821968,0.0
0.05393493818461158,0.020010354520124736,0.1584947000139594,0.0
0.05391911314953722,0.01999533414785077,0.15849121314182438,0.0
0.05392125891700493,0.019982727763977977,0.15848611694408857,0.0
0.05390945719593253,0.01994008063555725,0.15847431522301617,0.0
0.053926086893807276,0.01999399304318345,0.15849014025809052,0.0
0.053941375487014706,0.020018401148128646,0.15846841436247996,0.0
0.053931183091543086,0.020004453659588535,0.15847511988581656,0.0
0.05393064664967616,0.019984605310512223,0.1584807525254193,0.0
0.05393869327768007,0.01999238371758267,0.1584630499438107,0.0
0.053935474626478505,0.02002161979933021,0.15846036773447605,0.0
0.053920990696071466,0.020024838450531775,0.15845661264140756,0.0
0.05390865253313214,0.019972267147572893,0.15845232110647214,0.0
0.05391026185873292,0.020017596485328255,0.1584482977924702,0.0
0.05391884492860376,0.02003100753200144,0.1584327409783293,0.0
0.05390811609126521,0.0200076723107901,0.15843703251326471,0.0
0.05392876910314191,0.020018937589995574,0.1584673414787461,0.0
0.053921527137938394,0.01998889684544764,0.15845285754833907,0.0
0.053920186033271075,0.02001142740385859,0.15845956307167566,0.0
0.05393493818461158,0.01999533414785077,0.1584437380366013,0.0
0.05394673990568398,0.019967975612637474,0.15844910245527058,0.0
0.05393493818461158,0.019914599646878202,0.158442396931934,0.0
0.05392474578913996,0.01997360825224021,0.1584571490832745,0.0
0.05392260002167225,0.020000698566520043,0.1584702919090142,0.0
0.05391374873086795,0.01997414469410714,0.15846170883914337,0.0
0.053929573765942304,0.019993456601316524,0.15846573215314533,0.0
0.05393601106834543,0.019985678194246077,0.1584992597698283,0.0
0.05393896149861353,0.01999533414785077,0.158501405537296,0.0
0.053942716591682024,0.019994797705983842,0.15850113731636253,0.0
0.053909188974999064,0.01993847130995647,0.15848155718821968,0.0
0.05392394112633957,0.019982459543044513,0.1584850440603547,0.0
0.05395237254528672,0.019994797705983842,0.158490408479024,0.0
0.053935474626478505,0.019970121380105184,0.15847243767648192,0.0
0.05394164370794817,0.019955101007831218,0.15848343473475393,0.0
0.053955054754621354,0.01998648285704647,0.1584984551070279,0.0
0.053933328859010796,0.020013841392259764,0.1584917495836913,0.0
0.053936815731145824,0.02002081513652982,0.15848531228128818,0.0
0.05393735217301275,0.01999962568278619,0.15848531228128818,0.0
0.05393708395207929,0.019989165066381105,0.15847672921141734,0.0
0.05393011020780923,0.02001142740385859,0.15848263007195354,0.0
0.053925282231006885,0.019996675252518088,0.1584740470020827,0.0
0.053920722475138,0.01997119426383904,0.15846707325781265,0.0
0.05393145131247655,0.020012232066658982,0.1584673414787461,0.0
0.05394539880101666,0.02003771305533803,0.1584651957112784,0.0
0.053926623335674204,0.020000698566520043,0.15845178466460522,0.0
0.053924477568206494,0.019958051438099318,0.15844722490873633,0.0
0.05393225597527694,0.019985678194246077,0.1584496388971375,0.0
0.053916430940202584,0.019970389601038648,0.1584673414787461,0.0
0.05393493818461158,0.020017060043461328,0.1584791431998185,0.0
0.053926623335674204,0.020001503229320435,0.15847967964168544,0.0
0.05391616271926912,0.019984873531445686,0.15846787792061304,0.0
0.05393654751021236,0.01999399304318345,0.15848343473475393,0.0
0.05394164370794817,0.019965829845169765,0.15846868258341343,0.0
0.0539421801498151,0.020000162124653116,0.15844937067620404,0.0
0.05392286824260571,0.019985409973312614,0.15845902662980874,0.0
0.05393386530087772,0.020012232066658982,0.15846653681594572,0.0
0.053936815731145824,0.020023229124930993,0.15845580797860717,0.0
0.053943521254482416,0.020019742252795965,0.1584525893274056,0.0
0.05392876910314191,0.019972267147572893,0.15844588380406902,0.0
0.05392930554500884,0.020021888020263674,0.1584622452810103,0.0
0.053955054754621354,0.020033689741336076,0.1584651957112784,0.0
0.05393386530087772,0.01998085021744373,0.15843676429233125,0.0
0.05393949794048046,0.019983264205844904,0.15844722490873633,0.0
0.053959614510490236,0.019989969729181496,0.15844642024593594,0.0
0.05394030260328085,0.020008745194523954,0.15844722490873633,0.0
0.053946471684750516,0.020076068648823338,0.15844427447846823,0.0
0.053934669963678114,0.020041736369339987,0.15844507914126862,0.0
0.05393869327768007,0.020067753799885964,0.15844910245527058,0.0
0.053936815731145824,0.02007124067202099,0.15846036773447605,0.0
0.05393011020780923,0.020035835508803786,0.15844883423433712,0.0
0.05393815683581314,0.020050319439210824,0.1584673414787461,0.0
0.05393601106834543,0.020029129985467194,0.1584769974323508,0.0
0.053943521254482416,0.020040663485606132,0.1584807525254193,0.0
0.05395183610341979,0.020062657602150154,0.15844293337380091,0.0
0.05391750382393644,0.019994797705983842,0.1584364960713978,0.0
0.05392930554500884,0.01998809218264725,0.15845875840887527,0.0
0.05395827340582292,0.020071508892954455,0.15845580797860717,0.0
0.05392876910314191,0.020037444834404568,0.15846117239727645,0.0
0.053926086893807276,0.02002510667146524,0.15846197706007684,0.0
0.05393869327768007,0.020019205810929037,0.15845822196700834,0.0
0.053934669963678114,0.02005809784628127,0.158464391048478,0.0
0.05393279241714387,0.020056220299747025,0.15844588380406902,0.0
0.05392984198687577,0.020029934648267585,0.15843086343179505,0.0
0.053925282231006885,0.019996943473451552,0.15843756895513164,0.0
0.05392850088220845,0.01999533414785077,0.15842764478059349,0.0
0.053925282231006885,0.02003181219480183,0.1584281812224604,0.0
0.05392581867287381,0.020021888020263674,0.15842496257125885,0.0
0.05391857670767029,0.01998433708957876,0.15841155152458566,0.0
0.0539059703237975,0.020011159182925127,0.15840725998965025,0.0
0.053917235603002975,0.020032348636668758,0.15841262440831952,0.0
0.05392286824260571,0.020048978334543506,0.15841289262925298,0.0
0.0539089207540656,0.0200106227410582,0.15839679937324516,0.0
0.053919381370470684,0.02003985882280574,0.1584252307921923,0.0
0.053927427998474595,0.02005514741601317,0.15842710833872656,0.0
0.05392206357980532,0.020000966787453507,0.15839787225697902,0.0
0.05394405769634934,0.019999893903719652,0.15839545826857784,0.0
0.05394030260328085,0.02005300164854546,0.15840591888498293,0.0
0.053919381370470684,0.020067217358019036,0.15840296845471483,0.0
0.05391830848673683,0.020030471090134512,0.15838285188470505,0.0
0.05391750382393644,0.020057829625347808,0.15838660697777354,0.0
0.05392394112633957,0.0200615847184163,0.15843032698992812,0.0
0.05392474578913996,0.020065071590551327,0.15844212871100052,0.0
0.05391321228900102,0.020083042393093394,0.15844695668780287,0.0
0.05390865253313214,0.020072045334821383,0.1584394465016659,0.0
0.053906238544730964,0.02007177711388792,0.15843917828073242,0.0
0.05390757964939828,0.020092430125764622,0.15842281680379114,0.0
0.053920186033271075,0.020068558462686355,0.15838928918710818,0.0
0.05392581867287381,0.02004415035774116,0.1583898256289751,0.0
0.053911334742466774,0.020040931706539596,0.15841101508271874,0.0
0.053909188974999064,0.02004629612520887,0.15843086343179505,0.0
0.05392260002167225,0.02006319404401708,0.15845285754833907,0.0
0.05391535805646873,0.020065608032418254,0.15845822196700834,0.0
0.053933328859010796,0.020044418578674623,0.15844320159473438,0.0
0.05393359707994426,0.02001276850852591,0.15843059521086159,0.0
0.05393064664967616,0.02003395796226954,0.15845607619954064,0.0
0.05391830848673683,0.02003261685760222,0.158434886745797,0.0
0.053920186033271075,0.019970389601038648,0.15841477017578723,0.0
0.05393815683581314,0.019987555740780323,0.15845178466460522,0.0
0.053933328859010796,0.01999318838038306,0.15843810539699857,0.0
0.05393869327768007,0.019984605310512223,0.15844856601340365,0.0
0.05393225597527694,0.01998004555464334,0.15848853093248974,0.0
0.0539236729054061,0.019948127263561162,0.15849577289769326,0.0
0.05393145131247655,0.019982727763977977,0.158501405537296,0.0
0.05394191192888163,0.019954028124097363,0.15848316651382047,0.0
0.05393896149861353,0.019937934868089542,0.15848826271155628,0.0
0.053943521254482416,0.019959124321833173,0.15851428014210225,0.0
0.05393413352181119,0.019973876473173675,0.15852742296784197,0.0
0.05392260002167225,0.019967170949837083,0.15853412849117857,0.0
0.05391857670767029,0.019951345914762726,0.15854110223544862,0.0
0.05392689155660767,0.019947054379827307,0.15854029757264823,0.0
0.05394083904514778,0.01998728751984686,0.15854780775878521,0.0
0.0539421801498151,0.020007135868923172,0.15854163867731555,0.0
0.053931183091543086,0.019963147635835128,0.15850918394436644,0.0
0.05392876910314191,0.019955101007831218,0.1585035513047637,0.0
0.053936279289278896,0.01998809218264725,0.15850676995596527,0.0
0.05395559119648828,0.020008745194523954,0.15850274664196332,0.0
0.05394030260328085,0.019984605310512223,0.15852098566543885,0.0
0.05397087978969571,0.020030739311067976,0.15852688652597505,0.0
0.05395827340582292,0.02000847697359049,0.15850381952569717,0.0
0.053941375487014706,0.019981118438377195,0.15851642590956996,0.0
0.05394244837074856,0.019984605310512223,0.15852393609570695,0.0
0.05391455339366834,0.01998943328731457,0.15851481658396918,0.0
0.05392689155660767,0.02000418543865507,0.15849362713022555,0.0
0.05390650676566443,0.019989701508248033,0.158501405537296,0.0
0.053907847870331746,0.01998219132211105,0.15850408774663063,0.0
0.05392474578913996,0.020010890961991663,0.15850998860716684,0.0
0.053933328859010796,0.020002039671187362,0.15849979621169522,0.0
0.053934669963678114,0.019988628624514178,0.15850918394436644,0.0
0.05392769621940806,0.019990774391981887,0.15852098566543885,0.0
0.05393815683581314,0.01999318838038306,0.15851803523517075,0.0
0.05393011020780923,0.01998809218264725,0.15852474075850734,0.0
0.053911334742466774,0.01998004555464334,0.15852447253757387,0.0
0.053926086893807276,0.019967439170770547,0.15850086909542907,0.0
0.053921527137938394,0.019981923101177586,0.15847056012994767,0.0
0.05390731142846482,0.01998809218264725,0.1584689508043469,0.0
0.05391857670767029,0.019951345914762726,0.1584769974323508,0.0
0.05393145131247655,0.019951882356629654,0.15848772626968935,0.0
0.05391750382393644,0.01998219132211105,0.15849899154889482,0.0
0.053928232661274986,0.020050587660144288,0.15849282246742516,0.0
0.05393949794048046,0.020036640171604177,0.15845983129260913,0.0
0.0539148216146018,0.019991847275715742,0.15844856601340365,0.0
0.053931183091543086,0.02000338077585468,0.15845580797860717,0.0
0.053938425056746606,0.019992920159449597,0.15845232110647214,0.0
0.05394030260328085,0.019998552799052334,0.15843891005979896,0.0
0.05393654751021236,0.01997924089184295,0.15844186049006706,0.0
0.05391669916113605,0.01992827891448485,0.15843891005979896,0.0
0.05392340468447264,0.01998299598491144,0.15845902662980874,0.0
0.05393064664967616,0.019974412915040603,0.15844695668780287,0.0
0.053919381370470684,0.01995456456596429,0.15844910245527058,0.0
0.05392796444034152,0.019934716216887978,0.15847726565328427,0.0
0.053929573765942304,0.019969316717304793,0.1584947000139594,0.0
0.05392984198687577,0.020000698566520043,0.15852232677010616,0.0
0.053931719533410014,0.01997414469410714,0.1585191081189046,0.0
0.053936815731145824,0.019951882356629654,0.15850972038623337,0.0
0.05393225597527694,0.01997280358943982,0.15850623351409834,0.0
0.053922331800738785,0.019963415856768592,0.15850998860716684,0.0
0.053937620393946215,0.01999023795011496,0.1585287640725093,0.0
0.0539628331616918,0.020015450717860546,0.15850006443262868,0.0
0.053931719533410014,0.019996675252518088,0.1584778020951512,0.0
0.05393413352181119,0.02002376556679792,0.15848853093248974,0.0
0.05393064664967616,0.019985409973312614,0.15846975546714728,0.0
0.053935474626478505,0.01997924089184295,0.15847646099048388,0.0
0.05394325303354895,0.02000043034558658,0.15848343473475393,0.0
0.053930378428742695,0.01999238371758267,0.15849899154889482,0.0
0.053945667021950125,0.019990774391981887,0.15849014025809052,0.0
0.05395264076622018,0.019977363345308703,0.1584992597698283,0.0
0.05396041917329063,0.01999452948505038,0.15850489240943103,0.0
0.05394834923128476,0.0200224244621306,0.15850757461876566,0.0
0.05393815683581314,0.02000043034558658,0.15849523645582633,0.0
0.05394298481261549,0.01998433708957876,0.15848155718821968,0.0
0.05394888567315169,0.019958319659032782,0.15848316651382047,0.0
0.05394030260328085,0.01996690272890362,0.1584807525254193,0.0
0.053920990696071466,0.019951882356629654,0.1584837029556874,0.0
0.053942716591682024,0.019985409973312614,0.15849523645582633,0.0
0.05393145131247655,0.019987555740780323,0.15849067669995745,0.0
0.05394539880101666,0.020020278694662892,0.15850167375822946,0.0
0.053953713649954035,0.020025374892398702,0.1584807525254193,0.0
0.053947812789417834,0.01998219132211105,0.15847351056021577,0.0
0.05395854162675638,0.019976022240641385,0.15846921902528036,0.0
0.053960955615157555,0.01999023795011496,0.1584778020951512,0.0
0.05395934628955677,0.020004990101455462,0.15846251350194376,0.0
0.0539569323011556,0.02000418543865507,0.15846465926941147,0.0
0.05394539880101666,0.01997709512437524,0.15847592454861695,0.0
0.05394915389408515,0.01998594641517954,0.15845688086234103,0.0
0.053951567882486326,0.020026984217999484,0.1584584901879418,0.0
0.053926086893807276,0.01999613881065116,0.1584614406182099,0.0
0.0539421801498151,0.020001503229320435,0.15846197706007684,0.0
0.05394754456848437,0.02003529906693686,0.15846921902528036,0.0
0.05392876910314191,0.020060511834682444,0.1584858487231551,0.0
0.05393520640554504,0.020021083357463283,0.15851213437463454,0.0
0.05393198775434348,0.01999828457811887,0.15855424506118834,0.0
0.05392850088220845,0.019982727763977977,0.1585590730379907,0.0
0.053963101382625264,0.020008745194523954,0.1585751662939985,0.0
0.05396927046409493,0.02003100753200144,0.1585869680150709,0.0
0.053953713649954035,0.01998004555464334,0.15861083967814918,0.0
0.05393788861487968,0.019939007751823397,0.15860869391068147,0.0
0.053943521254482416,0.019998552799052334,0.1586033294920122,0.0
0.05393279241714387,0.01998219132211105,0.1585759709567989,0.0
0.05392796444034152,0.019976826903441776,0.15858053071266778,0.0
0.053937620393946215,0.019973340031306748,0.15859850151520985,0.0
0.053937620393946215,0.020012232066658982,0.15858723623600438,0.0
0.05394539880101666,0.020017596485328255,0.15857650739866583,0.0
0.053925282231006885,0.019963147635835128,0.15856738788692806,0.0
0.05391750382393644,0.01997789978717563,0.15855424506118834,0.0
0.053936815731145824,0.019988628624514178,0.15855719549145644,0.0
0.05395559119648828,0.019975485798774457,0.15856148702639186,0.0
0.053925282231006885,0.01996180653116781,0.15856604678226074,0.0
0.053927427998474595,0.01998299598491144,0.15858374936386935,0.0
0.05391026185873292,0.019992115496649206,0.1585944782012079,0.0
0.05393735217301275,0.020019205810929037,0.15861781342241923,0.0
0.0539510314406194,0.01999533414785077,0.15861995918988694,0.0
0.05395639585928867,0.019970389601038648,0.15859769685240946,0.0
0.05394700812661744,0.019996407031584625,0.15860520703854644,0.0
0.05396229671982487,0.02003610372973725,0.15859555108494175,0.0
0.05395746874302253,0.0200076723107901,0.15859313709654058,0.0
0.05395022677781901,0.02000418543865507,0.15861486299215113,0.0
0.05395827340582292,0.01998728751984686,0.15860976679441532,0.0
0.0539569323011556,0.02000847697359049,0.15862425072482236,0.0
0.05396766113849415,0.0200194740318625,0.15864946349256795,0.0
0.05395773696395599,0.020000966787453507,0.15863766177149555,0.0
0.053955859417421745,0.01998514175237915,0.1586239825038889,0.0
0.053955054754621354,0.019999893903719652,0.15861700875961884,0.0
0.05396202849889141,0.020022692683064065,0.158615935875885,0.0
0.05395773696395599,0.02001276850852591,0.15861083967814918,0.0
0.0539510314406194,0.019993456601316524,0.15861271722468342,0.0
0.05394888567315169,0.020020278694662892,0.15862961514349164,0.0
0.05394405769634934,0.020006867647989708,0.15862505538762275,0.0
0.053934669963678114,0.019962879414901664,0.15860493881761298,0.0
0.053946471684750516,0.0200194740318625,0.15860681636414722,0.0
0.0539480810103513,0.02003985882280574,0.15861942274802002,0.0
0.05393011020780923,0.020016791822527864,0.1586239825038889,0.0
0.05392206357980532,0.020018937589995574,0.15861486299215113,0.0
0.05393601106834543,0.02001866936906211,0.15863095624815896,0.0
0.053939229719547,0.020028593543600266,0.15863095624815896,0.0
0.05393949794048046,0.0200076723107901,0.15862854225975778,0.0
0.05392340468447264,0.01998138665931066,0.15861539943401806,0.0
0.05395022677781901,0.02003395796226954,0.15865080459723527,0.0
0.053950763219685935,0.020010354520124736,0.15862130029455426,0.0
0.053949422115018617,0.020030739311067976,0.15859769685240946,0.0
0.05392125891700493,0.02001437783412669,0.15860198838734488,0.0
0.053928232661274986,0.02000338077585468,0.15860493881761298,0.0
0.05394298481261549,0.020002844333987753,0.158597428631476,0.0
0.053920186033271075,0.020026179555199093,0.15860359771294566,0.0
0.05393735217301275,0.020054879195079707,0.15862532360855622,0.0
0.053922331800738785,0.02004119992747306,0.15864034398083018,0.0
0.05390516566099711,0.020022692683064065,0.1586682389579104,0.0
0.05392796444034152,0.02004710078800926,0.1586652885276423,0.0
0.05391374873086795,0.02000633120612278,0.15864704950416678,0.0
0.053920990696071466,0.020010354520124736,0.15864356263203175,0.0
0.053910798300599846,0.01999747991531848,0.15863176091095935,0.0
0.05391857670767029,0.020045223241475014,0.1586261282713566,0.0
0.05392930554500884,0.020041736369339987,0.15863015158535856,0.0
0.053917235603002975,0.020010086299191272,0.1586180816433527,0.0
0.0539089207540656,0.020006062985189317,0.15859716041054253,0.0
0.05390731142846482,0.020044418578674623,0.15859608752680868,0.0
0.05390328811446286,0.020037176613471104,0.15860520703854644,0.0
0.0539118711843337,0.020008745194523954,0.15859903795707678,0.0
0.053915089835535265,0.019974681135974066,0.15856309635199264,0.0
0.05389497326552549,0.019977631566242167,0.1585649738985269,0.0
0.05390141056792862,0.020037176613471104,0.1585907231081394,0.0
0.053915894498335656,0.020033689741336076,0.15856014592172454,0.0
0.05390221523072901,0.020017060043461328,0.15853278738651125,0.0
0.05391348050993448,0.020029129985467194,0.15851428014210225,0.0
0.053911334742466774,0.020046027904275406,0.15850086909542907,0.0
0.05391374873086795,0.020045759683341942,0.158482898292887,0.0
0.053926623335674204,0.020050587660144288,0.15847431522301617,0.0
0.05391562627740219,0.02001732826439479,0.15846412282754455,0.0
0.05391616271926912,0.020074995765089483,0.15846680503687918,0.0
0.053924477568206494,0.02008787036989574,0.15847243767648192,0.0
0.05390382455632979,0.020067753799885964,0.15848611694408857,0.0
0.0539030198935294,0.020048978334543506,0.1584947000139594,0.0
0.05389819191672705,0.02004629612520887,0.1584807525254193,0.0
0.05389846013766052,0.02002510667146524,0.15847351056021577,0.0
0.053904092777263254,0.020006867647989708,0.15846090417634298,0.0
0.05391026185873292,0.020041736369339987,0.1584541986530064,0.0
0.05389738725392666,0.020047637229876188,0.15847002368808075,0.0
0.053912944068067556,0.02000981807825781,0.15846546393221186,0.0
0.05391616271926912,0.02003529906693686,0.1584955046767598,0.0
0.05391669916113605,0.02005595207881356,0.15850972038623337,0.0
0.05390462921913018,0.020066412695218645,0.15849818688609443,0.0
0.05390033768419476,0.020072313555754846,0.15850489240943103,0.0
0.05388209866071923,0.02004119992747306,0.15850194197916292,0.0
0.05390462921913018,0.020045491462408478,0.15849684578142711,0.0
0.05390811609126521,0.02006104827654937,0.15849389535115901,0.0
0.05391053007966638,0.02006829024175289,0.15848263007195354,0.0
0.05390865253313214,0.020064266927750936,0.1584710965718146,0.0
0.05390382455632979,0.020046027904275406,0.15847297411834885,0.0
0.053919381370470684,0.020035567287870322,0.15849121314182438,0.0
0.05392420934727303,0.020077409753490656,0.15849148136275784,0.0
0.053920990696071466,0.020064266927750936,0.15847511988581656,0.0
0.05389658259112627,0.020065071590551327,0.15847002368808075,0.0
0.05388639019565465,0.020059975392815517,0.15844561558313555,0.0
0.05392045425420454,0.020116838230709817,0.15848558050222164,0.0
0.05392555045194035,0.020095648776966187,0.1585006008744956,0.0
0.05391053007966638,0.02006104827654937,0.1584769974323508,0.0
0.05389577792832588,0.02003824949720496,0.15848102074635276,0.0
0.05388907240498929,0.020070972451087528,0.15850167375822946,0.0
0.05389846013766052,0.02007258177668831,0.15849657756049365,0.0
0.05391348050993448,0.0200645351486844,0.1584947000139594,0.0
0.05392769621940806,0.02001571893879401,0.1585094521652999,0.0
0.053912944068067556,0.020032348636668758,0.15850381952569717,0.0
0.05390221523072901,0.02004790545080965,0.1585169623514369,0.0
0.05391348050993448,0.020079287300024902,0.15852179032823924,0.0
0.0539089207540656,0.020046564346142333,0.1585360060377128,0.0
0.053901947009795545,0.02005943895094859,0.15852742296784197,0.0
0.05392045425420454,0.02008277417215993,0.1585035513047637,0.0
0.05393493818461158,0.020029129985467194,0.1584769974323508,0.0
0.05389524148645895,0.020039590601872277,0.15848397117662086,0.0
0.05389336393992471,0.02005514741601317,0.15847297411834885,0.0
0.05390543388193057,0.020081164846559148,0.1584858487231551,0.0
0.05390543388193057,0.02004629612520887,0.15849738222329404,0.0
0.053917235603002975,0.020028593543600266,0.15849309068835862,0.0
0.053928232661274986,0.020042272811206914,0.1584933589092921,0.0
0.053939766161413924,0.020067217358019036,0.1584732423392823,0.0
0.053915894498335656,0.020030471090134512,0.1584512482227383,0.0
0.05390731142846482,0.02003315329946915,0.15846573215314533,0.0
0.05392769621940806,0.020069363125486746,0.15847887497888505,0.0
0.05390838431219867,0.020070972451087528,0.15846036773447605,0.0
0.05391884492860376,0.020077141532557193,0.15846760969967957,0.0
0.053930378428742695,0.020068022020819427,0.15847002368808075,0.0
0.05391616271926912,0.02003020286920105,0.15845795374607488,0.0
0.05391991781233761,0.02009672166070004,0.15847243767648192,0.0
0.05389363216085817,0.020049782997343897,0.15847270589741538,0.0
0.0539030198935294,0.02005648852068049,0.15848933559529013,0.0
0.05391321228900102,0.020036371950670713,0.15847807031608466,0.0
0.05392850088220845,0.02004710078800926,0.15847807031608466,0.0
0.053915894498335656,0.02004790545080965,0.15848531228128818,0.0
0.053917235603002975,0.0200674855789525,0.15847216945554846,0.0
0.05390972541686599,0.020040127043739205,0.15847941142075198,0.0
0.053915089835535265,0.020048173671743115,0.15850006443262868,0.0
0.053924477568206494,0.020095380556032723,0.1585051606303645,0.0
0.053920722475138,0.020088943253629594,0.15846465926941147,0.0
0.053909188974999064,0.0200586342881482,0.15847136479274807,0.0
0.05391053007966638,0.02006319404401708,0.15847297411834885,0.0
0.053930378428742695,0.02007472754415602,0.15846653681594572,0.0
0.05391669916113605,0.020054610974146243,0.15846197706007684,0.0
0.05388478087005387,0.020042272811206914,0.1585140119211688,0.0
0.05389202283525739,0.02005434275321278,0.15853225094464432,0.0
0.05392125891700493,0.020074459323222556,0.15852527720037426,0.0
0.05390221523072901,0.020075800427889874,0.158512402595568,0.0
0.053893095718991244,0.02005809784628127,0.1585169623514369,0.0
0.05391026185873292,0.020043077474007305,0.15852098566543885,0.0
0.053925282231006885,0.020094039451365404,0.1585132072583684,0.0
0.05389658259112627,0.020041736369339987,0.15848128896728622,0.0
0.05388343976538655,0.02001571893879401,0.15847458344394963,0.0
0.05390865253313214,0.02005809784628127,0.15847136479274807,0.0
0.05392850088220845,0.020118715777244063,0.15846626859501226,0.0
0.053933328859010796,0.02012568952151412,0.1584525893274056,0.0
0.05393386530087772,0.020119520440044454,0.15845768552514142,0.0
0.053937620393946215,0.020091893683897695,0.15846331816474415,0.0
0.053921527137938394,0.020093234788565013,0.1584592948507422,0.0
0.05392796444034152,0.020104231846837024,0.1584555397576737,0.0
0.05393735217301275,0.020099135649101214,0.15847538810675002,0.0
0.05392474578913996,0.020093503009498477,0.15847753387421773,0.0
0.05392581867287381,0.020146342533390822,0.1584820936300866,0.0
0.05393359707994426,0.02011764289351021,0.158464391048478,0.0
0.053940570824214315,0.020102086079369315,0.15848906737435667,0.0
0.05393493818461158,0.02006668091615211,0.1584955046767598,0.0
0.05393413352181119,0.02009806276536736,0.15851079326996723,0.0
0.05394888567315169,0.020121129765645236,0.1585073063978322,0.0
0.05393896149861353,0.020084115276827248,0.15849523645582633,0.0
0.05393788861487968,0.02006373048588401,0.1585073063978322,0.0
0.05395773696395599,0.02007982374189183,0.15849738222329404,0.0
0.053963101382625264,0.02008867503269613,0.1584732423392823,0.0
0.05390731142846482,0.020112814916707862,0.15850676995596527,0.0
0.05392796444034152,0.020141246335655012,0.1585183034561042,0.0
0.053934669963678114,0.02010396362590356,0.15848826271155628,0.0
0.05393306063807733,0.020134272591384957,0.1585081110606326,0.0
0.053926086893807276,0.020133467928584566,0.15853144628184393,0.0
0.05392394112633957,0.02008491993962764,0.1585094521652999,0.0
0.05393011020780923,0.02003690839253764,0.15848692160688896,0.0
0.05393654751021236,0.020081701288426075,0.15850033265356214,0.0
0.05393815683581314,0.02012354375404641,0.1585035513047637,0.0
0.05392635511474074,0.020101281416568924,0.15850408774663063,0.0
0.0539236729054061,0.020077141532557193,0.15852098566543885,0.0
0.053920722475138,0.02008062840469222,0.15853707892144667,0.0
0.05393574284741197,0.02005300164854546,0.1585140119211688,0.0
0.053945667021950125,0.02010396362590356,0.15852822763064237,0.0
0.05392260002167225,0.020074459323222556,0.1585405657935817,0.0
0.05392984198687577,0.020066412695218645,0.15853198272371086,0.0
0.053929573765942304,0.02008867503269613,0.1585338602702451,0.0
0.053914285172734874,0.02003395796226954,0.15851964456077153,0.0
0.05392635511474074,0.02003261685760222,0.15852339965384002,0.0
0.05395344542902057,0.020061852939349763,0.15852635008410812,0.0
0.053984290836368895,0.020044686799608087,0.15851562124676957,0.0
0.053925282231006885,0.019989701508248033,0.15850167375822946,0.0
0.05393279241714387,0.0200586342881482,0.15852554542130773,0.0
0.053917235603002975,0.020054610974146243,0.15857248408466387,0.0
0.05390945719593253,0.02009725810256697,0.15862666471322354,0.0
0.05392206357980532,0.02008867503269613,0.15859313709654058,0.0
0.05393279241714387,0.020068022020819427,0.15857999427080086,0.0
0.053917235603002975,0.020050587660144288,0.15857141120093002,0.0
0.0539177720448699,0.020058902509081662,0.15856095058452493,0.0
0.05393493818461158,0.020069899567353673,0.15857489807306505,0.0
0.05392420934727303,0.020047637229876188,0.15858240825920203,0.0
0.05394620346381705,0.020042541032140378,0.15858643157320398,0.0
0.05393091487060962,0.020068022020819427,0.15858723623600438,0.0
0.05393198775434348,0.020059975392815517,0.15857704384053276,0.0
0.053935474626478505,0.02003690839253764,0.15857570273586544,0.0
0.053944862359149734,0.020037176613471104,0.15858079893360125,0.0
0.05395612763835521,0.020103695404970097,0.15860601170134683,0.0
0.053952908987153644,0.02010396362590356,0.15860788924788108,0.0
0.05394620346381705,0.020091089021097304,0.15859313709654058,0.0
0.053934669963678114,0.02007848263722451,0.15857999427080086,0.0
0.05393896149861353,0.02008652926522842,0.15858643157320398,0.0
0.0539510314406194,0.020072045334821383,0.1585797260498674,0.0
0.0539510314406194,0.020060511834682444,0.15857704384053276,0.0
0.05395639585928867,0.02006533981148479,0.15856604678226074,0.0
0.05394834923128476,0.02005514741601317,0.15856363279385957,0.0
0.05393869327768007,0.020061316497482835,0.15857865316613354,0.0
0.05394915389408515,0.02004924655547697,0.15859716041054253,0.0
0.05393198775434348,0.02003824949720496,0.15859206421280672,0.0
0.05393654751021236,0.020061316497482835,0.15859850151520985,0.0
0.053949422115018617,0.020095380556032723,0.15856577856132728,0.0
0.05395129966155286,0.02006373048588401,0.1585456619913175,0.0
0.053945667021950125,0.020038785939071886,0.15856577856132728,0.0
0.053934669963678114,0.0200224244621306,0.15857436163119812,0.0
0.05391991781233761,0.020036371950670713,0.1585781167242666,0.0
0.05393815683581314,0.020029934648267585,0.1585649738985269,0.0
0.053942716591682024,0.020055683857880098,0.15859045488720594,0.0
0.05394030260328085,0.020048978334543506,0.15863122446909242,0.0
0.05395183610341979,0.020050319439210824,0.15861539943401806,0.0
0.053936815731145824,0.020029129985467194,0.15859769685240946,0.0
0.05394700812661744,0.020040395264672668,0.15859528286400829,0.0
0.053949958556885544,0.02003905416000535,0.15858374936386935,0.0
0.05394405769634934,0.020075263986022947,0.15860386593387912,0.0
0.05394620346381705,0.020099135649101214,0.15860145194547795,0.0
0.05393869327768007,0.0200733864394887,0.15857114297999655,0.0
0.053949958556885544,0.02003905416000535,0.1585531721774545,0.0
0.05395478653368789,0.02005595207881356,0.1585464666541179,0.0
0.05394754456848437,0.0200674855789525,0.15854834420065214,0.0
0.05393949794048046,0.020041468148406523,0.15854029757264823,0.0
0.05394405769634934,0.02003020286920105,0.15852366787477348,0.0
0.05394700812661744,0.02004924655547697,0.15851803523517075,0.0
0.053958809847689845,0.020060511834682444,0.15851803523517075,0.0
0.05394593524288359,0.020033689741336076,0.15851669413050343,0.0
0.05394620346381705,0.02003610372973725,0.1585153530258361,0.0
0.05396444248729258,0.020010086299191272,0.15850328308383024,0.0
0.05394432591728281,0.02002296090399753,0.15852688652597505,0.0
0.05394459413821627,0.020037176613471104,0.1585663150031942,0.0
0.05393011020780923,0.020004721880522,0.15856175524732533,0.0
0.053923136463539176,0.019988360403580714,0.15857355696839773,0.0
0.05393145131247655,0.020011695624792054,0.15859528286400829,0.0
0.05395425009182096,0.020016255380660937,0.15858589513133706,0.0
0.0539569323011556,0.020010354520124736,0.15858589513133706,0.0
0.05394459413821627,0.02001142740385859,0.1585730205265308,0.0
0.05395612763835521,0.02004629612520887,0.15856175524732533,0.0
0.053963906045425655,0.02001866936906211,0.15853225094464432,0.0
0.05397248911529649,0.020007404089856635,0.15852152210730577,0.0
0.05396444248729258,0.019998016357185407,0.15852339965384002,0.0
0.053848839264969736,0.020035567287870322,0.15850998860716684,0.0
0.05379251286894236,0.02000123500838697,0.15850408774663063,0.0
0.05394700812661744,0.020008208752657027,0.15851079326996723,0.0
0.053989387034104705,0.01997199892663943,0.15849738222329404,0.0
0.05397087978969571,0.01999023795011496,0.15850489240943103,0.0
0.05397248911529649,0.02003315329946915,0.15849523645582633,0.0
0.0539628331616918,0.02003824949720496,0.15846841436247996,0.0
0.053950763219685935,0.01998728751984686,0.15845178466460522,0.0
0.053969002243161465,0.019992651938516133,0.15846465926941147,0.0
0.05393493818461158,0.020033421520402613,0.15848102074635276,0.0
0.05380458281094823,0.02004119992747306,0.15849201780462477,0.0
0.053936815731145824,0.020004990101455462,0.15849818688609443,0.0
0.054016745569318,0.020008208752657027,0.15850274664196332,0.0
0.05397517132463113,0.020043613915874232,0.1584992597698283,0.0
0.053949422115018617,0.020008745194523954,0.1584820936300866,0.0
0.05393440174274465,0.019991847275715742,0.15847538810675002,0.0
0.05394244837074856,0.02002001047372943,0.1584651957112784,0.0
0.05394459413821627,0.02003985882280574,0.15844588380406902,0.0
0.053955859417421745,0.020016791822527864,0.15843461852486354,0.0
0.05396256494075834,0.02000123500838697,0.1584394465016659,0.0
0.053971148010629175,0.01997575401970792,0.15843435030393008,0.0
0.053950763219685935,0.01997119426383904,0.15845151644367175,0.0
0.0539510314406194,0.019989969729181496,0.1584571490832745,0.0
0.05395532297555482,0.019977363345308703,0.15845232110647214,0.0
0.053949422115018617,0.01991808651901323,0.15844025116446628,0.0
0.05395746874302253,0.01997119426383904,0.15842067103632343,0.0
0.053945667021950125,0.019982727763977977,0.15841235618738606,0.0
0.05392555045194035,0.01996100186836742,0.1584209392572569,0.0
0.053944862359149734,0.019946249717026916,0.15844266515286745,0.0
0.05394459413821627,0.019968243833570938,0.15845500331580678,0.0
0.05394620346381705,0.020019205810929037,0.15844561558313555,0.0
0.05394325303354895,0.020013304950392836,0.15846170883914337,0.0
0.05394727634755091,0.0199655616242363,0.15846787792061304,0.0
0.053943521254482416,0.01997789978717563,0.15847592454861695,0.0
0.05394164370794817,0.020011695624792054,0.15847646099048388,0.0
0.0539421801498151,0.020006867647989708,0.15848343473475393,0.0
0.05393413352181119,0.019967975612637474,0.1584563444204741,0.0
0.05394378947541588,0.019991310833848815,0.1584799478626189,0.0
0.05394620346381705,0.020009013415457418,0.15848343473475393,0.0
0.05395854162675638,0.02002886176453373,0.1584858487231551,0.0
0.053951567882486326,0.020008208752657027,0.15849523645582633,0.0
0.053941375487014706,0.019983532426778368,0.15851347547930186,0.0
0.05394298481261549,0.020034494404136467,0.1585035513047637,0.0
0.053943521254482416,0.020010354520124736,0.15849604111862672,0.0
0.053943521254482416,0.020035030846003395,0.1585006008744956,0.0
0.053944862359149734,0.02001437783412669,0.1584925542464917,0.0
0.05394754456848437,0.020023229124930993,0.15848128896728622,0.0
0.05395210432435325,0.02001142740385859,0.1584614406182099,0.0
0.05394539880101666,0.01998889684544764,0.15844481092033516,0.0
0.053937620393946215,0.019980581996510267,0.15842710833872656,0.0
0.05393091487060962,0.019985409973312614,0.1584209392572569,0.0
0.05394030260328085,0.019968512054504402,0.15842630367592617,0.0
0.053965247150092974,0.020000966787453507,0.1584453473622021,0.0
0.053948617452218225,0.01997924089184295,0.15845446687393985,0.0
0.05394888567315169,0.019980581996510267,0.1584651957112784,0.0
0.053931719533410014,0.019963415856768592,0.15847458344394963,0.0
0.05395022677781901,0.020021083357463283,0.1584933589092921,0.0
0.053952908987153644,0.020004721880522,0.15849684578142711,0.0
0.05394539880101666,0.019978972670909485,0.15848102074635276,0.0
0.05396229671982487,0.020001503229320435,0.1584769974323508,0.0
0.053960150952357164,0.019982727763977977,0.15848343473475393,0.0
0.05394083904514778,0.019979777333709876,0.15847941142075198,0.0
0.05393520640554504,0.01998594641517954,0.15845232110647214,0.0
0.05395049499875247,0.020003648996788144,0.1584445426994017,0.0
0.05396417426635912,0.020030471090134512,0.1584600995135426,0.0
0.05396363782449219,0.02001491427599362,0.15845500331580678,0.0
0.05392581867287381,0.01996770739170401,0.15844776135060326,0.0
0.05394754456848437,0.020008745194523954,0.15844212871100052,0.0
0.053954518312754426,0.020002039671187362,0.1584230850247246,0.0
0.05396444248729258,0.019986214636113005,0.15842147569912382,0.0
0.0539657835919599,0.020004990101455462,0.15843810539699857,0.0
0.05397222089436303,0.02001491427599362,0.1584525893274056,0.0
0.05396122383609102,0.019984068868645295,0.1584592948507422,0.0
0.053969002243161465,0.020009549857324345,0.15846117239727645,0.0
0.05396739291756068,0.01997199892663943,0.15846197706007684,0.0
0.053963906045425655,0.01998514175237915,0.15847136479274807,0.0
0.05397570776649806,0.01999452948505038,0.15848048430448583,0.0
0.05397651242929845,0.019962074752101273,0.158490408479024,0.0
0.053968197580361074,0.019939812414623788,0.15849738222329404,0.0
0.05396229671982487,0.019974681135974066,0.15849657756049365,0.0
0.0539598827314237,0.019973876473173675,0.15849523645582633,0.0
0.05396149205702448,0.019918354739946693,0.15848155718821968,0.0
0.053954518312754426,0.01988107203019524,0.15846063595540952,0.0
0.053985095499169286,0.019921305170214794,0.1584732423392823,0.0
0.05399099635970549,0.019953223461296972,0.15848692160688896,0.0
0.053964710708226046,0.019952687019430045,0.15849067669995745,0.0
0.05396336960355873,0.01993257044942027,0.15849496823489287,0.0
0.05400440740637867,0.019978168008109094,0.15850381952569717,0.0
0.05401808667398532,0.020010086299191272,0.15849791866516097,0.0
0.05400440740637867,0.01997199892663943,0.15845393043207293,0.0
0.053977048871165376,0.01992237805394865,0.15849148136275784,0.0
0.05396041917329063,0.01997065782197211,0.1585220585491727,0.0
0.05396712469662722,0.01998728751984686,0.15851508480490265,0.0
0.05396632003382683,0.019951077693829262,0.15848906737435667,0.0
0.05397892641769962,0.019953223461296972,0.1584748516648831,0.0
0.05398321795263504,0.019956710333432,0.15846278172287723,0.0
0.05398080396423387,0.019999357461852725,0.15846412282754455,0.0
0.0539746348827642,0.02000338077585468,0.15845875840887527,0.0
0.053958809847689845,0.01995241879849658,0.15845098000180483,0.0
0.05398026752236694,0.019949200147295017,0.1584584901879418,0.0
0.05398697304570353,0.019949200147295017,0.15845688086234103,0.0
0.053984290836368895,0.019951345914762726,0.15845795374607488,0.0
0.05398187684796772,0.019951077693829262,0.15845151644367175,0.0
0.05398777770850392,0.01991889118181362,0.15845795374607488,0.0
0.05399797010397554,0.019923450937682503,0.1584702919090142,0.0
0.053981340406100795,0.019921573391148258,0.15846331816474415,0.0
0.053988582371304314,0.019913258542210883,0.15844722490873633,0.0
0.05399180102250588,0.019953223461296972,0.15845473509487332,0.0
0.05399475145277398,0.019965829845169765,0.1584614406182099,0.0
0.05398697304570353,0.019969316717304793,0.1584482977924702,0.0
0.054002529859844425,0.019969316717304793,0.15844105582726667,0.0
0.05400092053424364,0.019941958182091497,0.15844025116446628,0.0
0.053982145068901186,0.0199537599031639,0.15845312576927253,0.0
0.05400092053424364,0.019967170949837083,0.15846653681594572,0.0
0.05401218581344912,0.019978972670909485,0.15845875840887527,0.0
0.05401325869718297,0.01999613881065116,0.15845071178087136,0.0
0.053994483231840515,0.01998594641517954,0.1584571490832745,0.0
0.054011917592515654,0.020003648996788144,0.15845071178087136,0.0
0.05401620912745107,0.020003112554921217,0.15843300919926276,0.0
0.05402640152292269,0.0199626111939682,0.15840806465245064,0.0
0.05399582433650783,0.019945445054226525,0.158442396931934,0.0
0.053981340406100795,0.01998594641517954,0.15846385460661108,0.0
0.0539657835919599,0.019975217577840994,0.15845393043207293,0.0
0.053986436603836604,0.019971462484772502,0.1584201345944565,0.0
0.05397275733622996,0.019947054379827307,0.15842630367592617,0.0
0.05398321795263504,0.019999893903719652,0.15844883423433712,0.0
0.05400145697611057,0.019991310833848815,0.1584230850247246,0.0
0.05398455905730236,0.01995536922876468,0.15839974980351326,0.0
0.05395746874302253,0.01994732260076077,0.15839840869884594,0.0
0.05398294973170158,0.019968780275437865,0.15839492182671092,0.0
0.05399260568530627,0.019950541251962335,0.15839036207084203,0.0
0.053986436603836604,0.019943835728625743,0.15840699176871678,0.0
0.05397087978969571,0.019925864926083676,0.15840109090818058,0.0
0.053993142127173196,0.01996180653116781,0.15841262440831952,0.0
0.05398965525503817,0.019976558682508312,0.1584260354549927,0.0
0.05397973108050001,0.019959392542766637,0.1583994815825798,0.0
0.053996628999308224,0.019958587879966246,0.15838607053590661,0.0
0.05397892641769962,0.019957246775298927,0.1583788285707031,0.0
0.054002529859844425,0.019994261264116915,0.15838499765217276,0.0
0.05397892641769962,0.01996180653116781,0.15838821630337432,0.0
0.05398241328983465,0.019941689961158034,0.15840001802444673,0.0
0.053977048871165376,0.019925864926083676,0.1584134290711199,0.0
0.05396497892915951,0.01997870444997602,0.15842737655966002,0.0
0.05398160862703426,0.020051124102011215,0.15842442612939192,0.0
0.05399501967370744,0.02003261685760222,0.15839465360577745,0.0
0.05397892641769962,0.019987823961713787,0.158423889687525,0.0
0.053979194638633085,0.020021351578396747,0.15843891005979896,0.0
0.05398563194103621,0.020006867647989708,0.15843086343179505,0.0
0.053992337464372805,0.01998138665931066,0.15844025116446628,0.0
0.054003870964511744,0.0199596607637001,0.15842281680379114,0.0
0.05399126458063895,0.01998514175237915,0.1584209392572569,0.0
0.05399636077837476,0.02001142740385859,0.1584222803619242,0.0
0.05399394678997359,0.01998138665931066,0.15841772060605533,0.0
0.053976244208364985,0.019929351798218704,0.15840886931525103,0.0
0.053999579429576325,0.019985409973312614,0.15845071178087136,0.0
0.053992337464372805,0.020023497345864456,0.15843837361793203,0.0
0.054013526918116436,0.020057829625347808,0.15843515496673047,0.0
0.05402130532518688,0.020022692683064065,0.15841745238512187,0.0
0.05397785353396577,0.01999908924091926,0.15841611128045455,0.0
0.053984290836368895,0.02002966642733412,0.15843810539699857,0.0
0.05399636077837476,0.020018401148128646,0.15844025116446628,0.0
0.05400574851104599,0.02000123500838697,0.15844132404820013,0.0
0.05401111292971526,0.01999747991531848,0.15844802957153672,0.0
0.05399260568530627,0.020002307892120826,0.1584407876063332,0.0
0.05398590016196968,0.019984873531445686,0.15840967397805142,0.0
0.05399126458063895,0.019956173891565072,0.1584201345944565,0.0
0.053996628999308224,0.019958051438099318,0.1584386418388655,0.0
0.053993142127173196,0.020007135868923172,0.15845902662980874,0.0
0.05400735783664677,0.02001276850852591,0.1584732423392823,0.0
0.05400655317384638,0.019974412915040603,0.15847887497888505,0.0
0.05400092053424364,0.01997414469410714,0.1584740470020827,0.0
0.05401164937158219,0.02002001047372943,0.1584660003740788,0.0
0.05399984765050979,0.019971462484772502,0.15843327742019622,0.0
0.053980535743300403,0.01998138665931066,0.15842952232712773,0.0
0.05398697304570353,0.020013841392259764,0.15841664772232147,0.0
0.05400065231331018,0.020041736369339987,0.15842040281538997,0.0
0.05398294973170158,0.019961270089300882,0.15841101508271874,0.0
0.05400601673197945,0.020002307892120826,0.1583855340940397,0.0
0.05401004004598141,0.02004495502054155,0.158416379501388,0.0
0.05398268151076811,0.020016255380660937,0.1584061871059164,0.0
0.053974098440897275,0.020004990101455462,0.1583973358151121,0.0
0.05399072813877202,0.019993456601316524,0.15844293337380091,0.0
0.053984290836368895,0.019945445054226525,0.15844856601340365,0.0
0.05399099635970549,0.019962342973034737,0.158434886745797,0.0
0.05398160862703426,0.019971730705705966,0.1584134290711199,0.0
0.053968197580361074,0.019973340031306748,0.15842147569912382,0.0
0.05399126458063895,0.019992651938516133,0.15844776135060326,0.0
0.05397436666183074,0.019976558682508312,0.15845768552514142,0.0
0.053980535743300403,0.019954028124097363,0.15845795374607488,0.0
0.05396792935942761,0.019957783217165855,0.15845473509487332,0.0
0.05395827340582292,0.019943299286758816,0.1584866533859555,0.0
0.053977048871165376,0.019928815356351777,0.15848933559529013,0.0
0.05398590016196968,0.019946249717026916,0.15848611694408857,0.0
0.0540019934179775,0.019954028124097363,0.1584673414787461,0.0
0.05400521206917906,0.01994008063555725,0.15845393043207293,0.0
0.05400655317384638,0.01993713020528915,0.15844588380406902,0.0
0.05398992347597163,0.019962074752101273,0.15843139987366198,0.0
0.05397302555716342,0.01994651793796038,0.15841906171072265,0.0
0.053968197580361074,0.01992693780981753,0.15840779643151717,0.0
0.05398160862703426,0.01992827891448485,0.1584201345944565,0.0
0.05400118875517711,0.01993927597275686,0.15842281680379114,0.0
0.05397865819676616,0.01989072798379993,0.15841745238512187,0.0
0.053978389975832694,0.019919159402747084,0.1584364960713978,0.0
0.053969002243161465,0.01992237805394865,0.1584356914085974,0.0
0.05397678065023191,0.019946249717026916,0.15846117239727645,0.0
0.053971148010629175,0.019933643333154123,0.15844695668780287,0.0
0.05396712469662722,0.01990226148393887,0.15844507914126862,0.0
0.05397517132463113,0.019935789100621833,0.15844051938539974,0.0
0.05399689722024169,0.01994571327515999,0.15842147569912382,0.0
0.05398992347597163,0.019929620019152168,0.1583973358151121,0.0
0.05394298481261549,0.019920500507414403,0.15840350489658175,0.0
0.0539716844524961,0.019944640391426134,0.1584289858852608,0.0
0.05399099635970549,0.019949736589161944,0.15842496257125885,0.0
0.05399394678997359,0.020000162124653116,0.15842576723405924,0.0
0.05400145697611057,0.019970121380105184,0.15841021041991835,0.0
0.05399931120864286,0.019928547135418313,0.15839545826857784,0.0
0.054001725197044034,0.019899579274604232,0.15838821630337432,0.0
0.05399341034810666,0.019941153519291106,0.15841101508271874,0.0
0.05399180102250588,0.019980581996510267,0.1584445426994017,0.0
0.05399475145277398,0.01996100186836742,0.15844561558313555,0.0
0.05399931120864286,0.01996395229863552,0.15844588380406902,0.0
0.053998774766775934,0.019948931926361553,0.1584541986530064,0.0
0.053993142127173196,0.01992613314701714,0.15843461852486354,0.0
0.053987241266636996,0.019927206030750995,0.15843247275739583,0.0
0.05398536372010275,0.01991245387941049,0.15842952232712773,0.0
0.05399850654584247,0.019938203089023006,0.15842844944339388,0.0
0.054010576487848336,0.019958051438099318,0.15844132404820013,0.0
0.054004675627312135,0.01989796994900345,0.15843300919926276,0.0
0.054004675627312135,0.019911380995676634,0.1584319363155289,0.0
0.05399260568530627,0.019925060263283285,0.15843595962953086,0.0
0.05400413918544521,0.019935252658754905,0.15843917828073242,0.0
0.05401245403438258,0.01993042468195256,0.1584415922691336,0.0
0.05400413918544521,0.019956442112498536,0.15843971472259935,0.0
0.05399287390623973,0.019960733647433955,0.15844105582726667,0.0
0.05398697304570353,0.01998889684544764,0.1584453473622021,0.0
0.05399555611557437,0.01996100186836742,0.1584378371760651,0.0
0.05397222089436303,0.019905480135140433,0.1584504435599379,0.0
0.053990191696905096,0.019977363345308703,0.1584689508043469,0.0
0.054018623115852246,0.020026179555199093,0.15846412282754455,0.0
0.05400869894131409,0.01999023795011496,0.15847672921141734,0.0
0.053995287894640906,0.0199626111939682,0.15848826271155628,0.0
0.05399394678997359,0.019968780275437865,0.158482898292887,0.0
0.054004675627312135,0.020002307892120826,0.15847431522301617,0.0
0.05400226163891096,0.019956978554365463,0.1584437380366013,0.0
0.05400118875517711,0.019962074752101273,0.1584651957112784,0.0
0.05401594090651761,0.01996046542650049,0.1584584901879418,0.0
0.05401111292971526,0.01996180653116781,0.15846841436247996,0.0
0.054017013790251464,0.019992651938516133,0.1584850440603547,0.0
0.054013526918116436,0.019959124321833173,0.15847538810675002,0.0
0.05400816249944716,0.01992318271674904,0.15847136479274807,0.0
0.054004675627312135,0.019942494623958425,0.1584571490832745,0.0
0.054014868022783755,0.01992103694928133,0.15844132404820013,0.0
0.05400118875517711,0.019925060263283285,0.15843166809459544,0.0
0.05399797010397554,0.01987758515806021,0.15842952232712773,0.0
0.054017818453051855,0.019918622960880157,0.15846465926941147,0.0
0.05400306630171135,0.01992693780981753,0.15848182540915315,0.0
0.05400440740637867,0.01990226148393887,0.15845795374607488,0.0
0.05400065231331018,0.0198636376695201,0.1584512482227383,0.0
0.05398590016196968,0.019906284797940824,0.15846331816474415,0.0
0.05399797010397554,0.01992532848421675,0.15841691594325494,0.0
0.05397302555716342,0.019896897065269595,0.15839679937324516,0.0
0.05398482727823582,0.019918354739946693,0.1584651957112784,0.0
0.05399394678997359,0.019943299286758816,0.15847270589741538,0.0
0.05400601673197945,0.019962342973034737,0.15845527153674024,0.0
0.05403981256959588,0.019958051438099318,0.15842040281538997,0.0
0.05402237820892074,0.019888850437265685,0.1584437380366013,0.0
0.053990191696905096,0.01989072798379993,0.15848853093248974,0.0
0.054003334522644816,0.019966366287036692,0.15848102074635276,0.0
0.054014868022783755,0.01998728751984686,0.15847377878114924,0.0
0.05400655317384638,0.01996046542650049,0.15846465926941147,0.0
0.054003334522644816,0.019941958182091497,0.15844561558313555,0.0
0.054010576487848336,0.01995751499623239,0.1584525893274056,0.0
0.053997433662108615,0.019941958182091497,0.1584407876063332,0.0
0.05399260568530627,0.019931765786619877,0.15842844944339388,0.0
0.053994483231840515,0.019887241111664903,0.15843354564112969,0.0
0.05399770188304208,0.019907089460741215,0.15843354564112969,0.0
0.05400065231331018,0.019965293403302838,0.15843810539699857,0.0
0.05399931120864286,0.019940885298357643,0.1584445426994017,0.0
0.05400574851104599,0.019932302228486805,0.15846278172287723,0.0
0.05398321795263504,0.019948395484494626,0.15848263007195354,0.0
0.05398026752236694,0.019957783217165855,0.15848102074635276,0.0
0.05398670482477007,0.01994061707742418,0.15846331816474415,0.0
0.053990191696905096,0.019934447995954514,0.15845312576927253,0.0
0.05397865819676616,0.01992988824008563,0.1584525893274056,0.0
0.05398080396423387,0.019958051438099318,0.15849201780462477,0.0
0.053984290836368895,0.019960197205567028,0.15848155718821968,0.0
0.05400655317384638,0.019958587879966246,0.15848772626968935,0.0
0.05399287390623973,0.019924255600482894,0.15848423939755432,0.0
0.05398750948757046,0.01996395229863552,0.15849872332796136,0.0
0.05399984765050979,0.019962342973034737,0.15849979621169522,0.0
0.05399582433650783,0.019936593763422224,0.15847807031608466,0.0
0.053997433662108615,0.01992988824008563,0.1584525893274056,0.0
0.05397785353396577,0.019975217577840994,0.15846063595540952,0.0
0.053985095499169286,0.01998219132211105,0.1584660003740788,0.0
0.0540019934179775,0.019938203089023006,0.15847860675795158,0.0
0.05399126458063895,0.019925060263283285,0.1585140119211688,0.0
0.05399984765050979,0.019942494623958425,0.1585035513047637,0.0
0.053994483231840515,0.019992920159449597,0.1584933589092921,0.0
0.053979999301433476,0.01997789978717563,0.15849496823489287,0.0
0.05397946285956655,0.01995456456596429,0.15849818688609443,0.0
0.05396927046409493,0.019971462484772502,0.15849523645582633,0.0
0.05397356199903035,0.019971462484772502,0.15848155718821968,0.0
0.05397248911529649,0.019957246775298927,0.1584732423392823,0.0
0.05398187684796772,0.0199537599031639,0.15847565632768348,0.0
0.053988582371304314,0.019964220519568983,0.1584858487231551,0.0
0.053986436603836604,0.019965293403302838,0.15846868258341343,0.0
0.053992337464372805,0.019967975612637474,0.1584482977924702,0.0
0.0540078942785137,0.0199508094728958,0.15844507914126862,0.0
0.054003870964511744,0.019908430565408534,0.1584378371760651,0.0
0.05402184176705381,0.01994571327515999,0.15843381386206315,0.0
0.05401728201118493,0.01993632554248876,0.15843220453646237,0.0
0.05398160862703426,0.01994276284489189,0.15844776135060326,0.0
0.05398563194103621,0.0199655616242363,0.1584614406182099,0.0
0.05397141623156264,0.01996046542650049,0.1584445426994017,0.0
0.05399045991783856,0.01996046542650049,0.1584356914085974,0.0
0.05398268151076811,0.019924255600482894,0.15845178466460522,0.0
0.05397892641769962,0.019905480135140433,0.15845446687393985,0.0
0.053996628999308224,0.01991245387941049,0.15843837361793203,0.0
0.053987241266636996,0.01991299032127742,0.15844507914126862,0.0
0.05397651242929845,0.01990306614673926,0.15845473509487332,0.0
0.05395720052208906,0.019874902948725574,0.15843300919926276,0.0
0.0540078942785137,0.019906553018874288,0.15845071178087136,0.0
0.05402452397638845,0.019915672530612057,0.15845580797860717,0.0
0.053993142127173196,0.019939812414623788,0.15845312576927253,0.0
0.05398697304570353,0.019941958182091497,0.15846385460661108,0.0
0.05399555611557437,0.019963147635835128,0.15846573215314533,0.0
0.05398992347597163,0.019977631566242167,0.15847163301368153,0.0
0.05399260568530627,0.019951077693829262,0.15847431522301617,0.0
0.05398911881317124,0.01989421485593496,0.1584710965718146,0.0
0.05398777770850392,0.019907089460741215,0.1584769974323508,0.0
0.053995287894640906,0.019937934868089542,0.1584710965718146,0.0
0.0539990429877094,0.019923719158615967,0.1584689508043469,0.0
0.05400735783664677,0.019913526763144347,0.15846197706007684,0.0
0.053974903103697666,0.01988992332099954,0.15847136479274807,0.0
0.053993142127173196,0.019937934868089542,0.1584791431998185,0.0
0.053993678569040124,0.019936593763422224,0.15848128896728622,0.0
0.05401433158091683,0.01993632554248876,0.15847297411834885,0.0
0.05402050066238649,0.01991513608874513,0.15847726565328427,0.0
0.05398241328983465,0.019915404309678593,0.15849148136275784,0.0
0.05400092053424364,0.019971462484772502,0.15850381952569717,0.0
0.0540078942785137,0.019922646274882112,0.1584778020951512,0.0
0.05400360274357828,0.019924255600482894,0.15846975546714728,0.0
0.05400923538318102,0.019967439170770547,0.15847511988581656,0.0
0.05400869894131409,0.019926401367950604,0.158464391048478,0.0
0.054004675627312135,0.019932302228486805,0.1584445426994017,0.0
0.05400869894131409,0.01993498443782144,0.15844293337380091,0.0
0.05400816249944716,0.01994571327515999,0.1584571490832745,0.0
0.05400869894131409,0.019930692902886023,0.15844856601340365,0.0
0.05401164937158219,0.019932302228486805,0.15844990711807097,0.0
0.054003334522644816,0.019909771670075852,0.1584584901879418,0.0
0.05400145697611057,0.01995885610089971,0.15847377878114924,0.0
0.05400118875517711,0.01996904849637133,0.15847270589741538,0.0
0.05399180102250588,0.01996100186836742,0.15848397117662086,0.0
0.053992337464372805,0.01993122934475295,0.1584673414787461,0.0
0.053997433662108615,0.01995456456596429,0.1584563444204741,0.0
0.053982145068901186,0.01996046542650049,0.15844990711807097,0.0
0.053991532801572414,0.019981118438377195,0.1584474931296698,0.0
0.05400628495291292,0.019996943473451552,0.15844507914126862,0.0
0.05400923538318102,0.019987555740780323,0.15844481092033516,0.0
0.05400735783664677,0.019985678194246077,0.15846465926941147,0.0
0.054006821394779844,0.019968512054504402,0.15844990711807097,0.0
0.053994483231840515,0.019942494623958425,0.15843703251326471,0.0
0.05399341034810666,0.019963684077702055,0.15843810539699857,0.0
0.053997433662108615,0.019984873531445686,0.15845446687393985,0.0
0.05399555611557437,0.019982459543044513,0.15844776135060326,0.0
0.05399770188304208,0.019963147635835128,0.15844427447846823,0.0
0.05399797010397554,0.019939007751823397,0.15843676429233125,0.0
0.05400011587144325,0.019998821019985798,0.15844507914126862,0.0
0.053994483231840515,0.019963147635835128,0.1584378371760651,0.0
0.0540078942785137,0.020035567287870322,0.1584512482227383,0.0
0.05399045991783856,0.020026179555199093,0.15846573215314533,0.0
0.05402023244145303,0.020043613915874232,0.1584673414787461,0.0
0.054033107046259285,0.020065608032418254,0.15845285754833907,0.0
0.054008430720380626,0.020021351578396747,0.15844212871100052,0.0
0.05400306630171135,0.019984873531445686,0.15845527153674024,0.0
0.05401245403438258,0.020003917217721608,0.1584504435599379,0.0
0.054028010848523475,0.020043613915874232,0.15845795374607488,0.0
0.0540314977206585,0.020040663485606132,0.15847082835088114,0.0
0.05402050066238649,0.02000418543865507,0.1584896038162236,0.0
0.054012722255316045,0.019999357461852725,0.15848450761848779,0.0
0.05401218581344912,0.01999908924091926,0.15847646099048388,0.0
0.053997433662108615,0.019986751077979932,0.1584740470020827,0.0
0.05399716544117515,0.01999828457811887,0.15849309068835862,0.0
0.05400065231331018,0.020007404089856635,0.1585250089794408,0.0
0.05398697304570353,0.02001491427599362,0.15852527720037426,0.0
0.053983486173568504,0.020018132927195183,0.1584917495836913,0.0
0.053998774766775934,0.02000981807825781,0.15846680503687918,0.0
0.05399287390623973,0.019976558682508312,0.1584445426994017,0.0
0.05397222089436303,0.02003020286920105,0.1584571490832745,0.0
0.0540019934179775,0.020032885078535685,0.15846680503687918,0.0
0.05400574851104599,0.019996943473451552,0.1584820936300866,0.0
0.054001725197044034,0.02000043034558658,0.15849416357209248,0.0
0.054008430720380626,0.02002457022959831,0.15848853093248974,0.0
0.053987241266636996,0.02002081513652982,0.15849067669995745,0.0
0.053985095499169286,0.019969584938238256,0.15849604111862672,0.0
0.053990191696905096,0.019955101007831218,0.15850757461876566,0.0
0.05399287390623973,0.020006062985189317,0.15851776701423728,0.0
0.053978389975832694,0.02002752065986641,0.15852474075850734,0.0
0.054008967162247554,0.020010354520124736,0.15850703817689873,0.0
0.05400601673197945,0.01997199892663943,0.1584925542464917,0.0
0.05400923538318102,0.020004721880522,0.15849121314182438,0.0
0.05399797010397554,0.01999828457811887,0.1584791431998185,0.0
0.05398992347597163,0.01997629046157485,0.15847726565328427,0.0
0.054000384092376716,0.01999908924091926,0.15849738222329404,0.0
0.05401835489491878,0.020012232066658982,0.15851883989797114,0.0
0.054019964220519565,0.020006867647989708,0.1585153530258361,0.0
0.05399636077837476,0.019988628624514178,0.15850998860716684,0.0
0.05399045991783856,0.019994797705983842,0.15852071744450538,0.0
0.05400011587144325,0.019997211694385016,0.15852232677010616,0.0
0.0540137951390499,0.020021888020263674,0.15855344039838795,0.0
0.05399072813877202,0.01999318838038306,0.15855290395652102,0.0
0.05399850654584247,0.01998889684544764,0.15855719549145644,0.0
0.05401218581344912,0.019984068868645295,0.15855048996811985,0.0
0.05398321795263504,0.019951077693829262,0.15852822763064237,0.0
0.05396417426635912,0.01996180653116781,0.15854029757264823,0.0
0.05398670482477007,0.020009013415457418,0.15854834420065214,0.0
0.05399501967370744,0.019985409973312614,0.15854029757264823,0.0
0.053996628999308224,0.020022692683064065,0.1585258136422412,0.0
0.053975439545564594,0.019991847275715742,0.15853520137491242,0.0
0.053993678569040124,0.019961270089300882,0.1585574637123899,0.0
0.05398992347597163,0.01991299032127742,0.15854914886345253,0.0
0.05401138115064873,0.019974681135974066,0.15856175524732533,0.0
0.054000384092376716,0.01996690272890362,0.1585553179449222,0.0
0.05400145697611057,0.019965829845169765,0.15854995352625292,0.0
0.05398455905730236,0.019976022240641385,0.15853868824704745,0.0
0.05399850654584247,0.020015450717860546,0.15853493315397896,0.0
0.053993678569040124,0.019989969729181496,0.1585242043166404,0.0
0.05399126458063895,0.019973340031306748,0.15852071744450538,0.0
0.05400065231331018,0.020010354520124736,0.15851776701423728,0.0
0.0540137951390499,0.020021888020263674,0.1585389564679809,0.0
0.05401325869718297,0.02001571893879401,0.1585464666541179,0.0
0.05400118875517711,0.019989969729181496,0.15852366787477348,0.0
0.054002529859844425,0.01998219132211105,0.15854217511918248,0.0
0.0540137951390499,0.020003917217721608,0.1585443208866502,0.0
0.0540078942785137,0.02002752065986641,0.15854137045638209,0.0
0.05399180102250588,0.020021888020263674,0.15852474075850734,0.0
0.05400869894131409,0.020021351578396747,0.1585301051771766,0.0
0.053986436603836604,0.020037176613471104,0.15853654247957974,0.0
0.05398965525503817,0.02006614447428518,0.15853144628184393,0.0
0.05399555611557437,0.020035030846003395,0.15851723057237035,0.0
0.05400306630171135,0.02003824949720496,0.1585132072583684,0.0
0.05399206924343934,0.020020278694662892,0.1585132072583684,0.0
0.05400118875517711,0.020076068648823338,0.15853439671211203,0.0
0.0539960925574413,0.02006319404401708,0.1585301051771766,0.0
0.05397302555716342,0.020002039671187362,0.1585405657935817,0.0
0.05396417426635912,0.0200224244621306,0.1585502217471864,0.0
0.05397248911529649,0.02004280925307384,0.15854995352625292,0.0
0.053986436603836604,0.02005809784628127,0.1585472713169183,0.0
0.053978389975832694,0.020020546915596356,0.1585582683751903,0.0
0.053977048871165376,0.020018937589995574,0.15857194764279695,0.0
0.05399180102250588,0.020026179555199093,0.15857543451493197,0.0
0.053985095499169286,0.0200194740318625,0.15857328874746426,0.0
0.05398482727823582,0.020016255380660937,0.15857275230559734,0.0
0.05397383021996381,0.020007940531723563,0.15857436163119812,0.0
0.05399287390623973,0.020043882136807696,0.1585368107005132,0.0
0.05397973108050001,0.020035835508803786,0.15851079326996723,0.0
0.0539657835919599,0.02003100753200144,0.15850596529316488,0.0
0.05397087978969571,0.02002510667146524,0.158530909839977,0.0
0.05398777770850392,0.020030471090134512,0.1585397611307813,0.0
0.05401164937158219,0.0200733864394887,0.1585368107005132,0.0
0.0539746348827642,0.020021351578396747,0.15852447253757387,0.0
0.053947812789417834,0.020009549857324345,0.15850489240943103,0.0
0.053974098440897275,0.020049782997343897,0.158501405537296,0.0
0.05398831415037085,0.020085456381494567,0.1585073063978322,0.0
0.05398321795263504,0.020043077474007305,0.15849067669995745,0.0
0.053958005184889454,0.020022156241197138,0.1584740470020827,0.0
0.0539569323011556,0.020017596485328255,0.15846626859501226,0.0
0.053960150952357164,0.020061316497482835,0.15847672921141734,0.0
0.053966856475693756,0.020044686799608087,0.158471901234615,0.0
0.0539716844524961,0.020030471090134512,0.15845607619954064,0.0
0.05397383021996381,0.02001491427599362,0.15846868258341343,0.0
0.0539716844524961,0.02000338077585468,0.1584630499438107,0.0
0.05398321795263504,0.020047637229876188,0.15847082835088114,0.0
0.05397651242929845,0.020027788880799875,0.1584769974323508,0.0
0.053974903103697666,0.019988360403580714,0.15847163301368153,0.0
0.053979194638633085,0.020002844333987753,0.15847377878114924,0.0
0.05398482727823582,0.020016791822527864,0.15846117239727645,0.0
0.05398697304570353,0.020026179555199093,0.15845500331580678,0.0
0.053991532801572414,0.020008745194523954,0.15845527153674024,0.0
0.054002529859844425,0.01999533414785077,0.1584482977924702,0.0
0.053982145068901186,0.019972267147572893,0.1584445426994017,0.0
0.05398804592943739,0.0200076723107901,0.15846117239727645,0.0
0.053993142127173196,0.020078750858157975,0.15844266515286745,0.0
0.05397302555716342,0.02008652926522842,0.158442396931934,0.0
0.05398750948757046,0.020122470870312555,0.15843971472259935,0.0
0.05398750948757046,0.020084651718694176,0.15841825704792226,0.0
0.053950763219685935,0.020053269869478925,0.15843032698992812,0.0
0.053974903103697666,0.020077141532557193,0.15843891005979896,0.0
0.053979194638633085,0.02009511233509926,0.15844186049006706,0.0
0.05397651242929845,0.02010396362590356,0.15841664772232147,0.0
0.05398616838290314,0.02009001613736345,0.158405382443116,0.0
0.053966856475693756,0.02007392288135563,0.15838419298937237,0.0
0.053969806905961856,0.020082505951226466,0.15837936501257002,0.0
0.05398026752236694,0.0200704360092206,0.15837078194269918,0.0
0.05398402261543543,0.02008062840469222,0.15839009384990857,0.0
0.05398026752236694,0.020033421520402613,0.1584120879664526,0.0
0.05399931120864286,0.020111473812040544,0.15838875274524125,0.0
0.05399206924343934,0.02009591699789965,0.15836890439616494,0.0
0.05398697304570353,0.020082505951226466,0.15840350489658175,0.0
0.05399689722024169,0.02010610939337127,0.15842281680379114,0.0
0.05401245403438258,0.02009967209096814,0.15840296845471483,0.0
0.054008430720380626,0.02012005688191138,0.158386875198707,0.0
0.05398187684796772,0.020134272591384957,0.15836568574496337,0.0
0.05397570776649806,0.020122470870312555,0.15833725432601622,0.0
0.05397383021996381,0.02011335135857479,0.1583485196052217,0.0
0.053969806905961856,0.020121666207512164,0.15832277039560919,0.0
0.05397248911529649,0.020099940311901605,0.15833510855854852,0.0
0.05396632003382683,0.020070167788287137,0.15834691027962092,0.0
0.05397597598743152,0.020095380556032723,0.1583418140818851,0.0
0.05396632003382683,0.02007901907909144,0.15834395984935282,0.0
0.05396551537102644,0.02003315329946915,0.15835790733789293,0.0
0.05399501967370744,0.02005809784628127,0.15835281114015712,0.0
0.05395478653368789,0.02005434275321278,0.1582849512439908,0.0
0.05394700812661744,0.020050587660144288,0.15826376179024718,0.0
0.0539510314406194,0.02004629612520887,0.15824471810397125,0.0
0.05395639585928867,0.020041736369339987,0.15822942951076382,0.0
0.05396551537102644,0.02010691405617166,0.15824337699930394,0.0
0.053974098440897275,0.020097794544433896,0.15822862484796343,0.0
0.05397087978969571,0.020067753799885964,0.15823452570849963,0.0
0.05396041917329063,0.02003905416000535,0.1582326481619654,0.0
0.05396766113849415,0.020080360183758757,0.15824203589463662,0.0
0.05397651242929845,0.020065071590551327,0.15823720791783427,0.0
0.05396846580129454,0.020048978334543506,0.15824042656903584,0.0
0.05394834923128476,0.020051660543878143,0.15825651982504366,0.0
0.0539480810103513,0.020079287300024902,0.1582562516041102,0.0
0.05395639585928867,0.020083310614026857,0.15825222829010824,0.0
0.053936815731145824,0.020053269869478925,0.1582718084182511,0.0
0.05392125891700493,0.019972535368506357,0.15825786092971098,0.0
0.0539480810103513,0.020053806311345852,0.15826027491811215,0.0
0.053973293778096884,0.0201243484168468,0.15826188424371293,0.0
0.05395746874302253,0.020059975392815517,0.15825115540637438,0.0
0.05394325303354895,0.02009591699789965,0.15826617577864835,0.0
0.05394298481261549,0.020113887800441717,0.1582680533251826,0.0
0.053950763219685935,0.02015492560326166,0.15827744105785382,0.0
0.05394620346381705,0.020145001428723504,0.1582806597090554,0.0
0.05394164370794817,0.020102086079369315,0.1582701990926503,0.0
0.053955054754621354,0.02011764289351021,0.1582621524646464,0.0
0.0539510314406194,0.020144196765923113,0.1582583973715779,0.0
0.0539628331616918,0.0201243484168468,0.15824981430170706,0.0
0.05396846580129454,0.020121129765645236,0.15826617577864835,0.0
0.053961760277957946,0.020098599207234287,0.15824793675517282,0.0
0.05395478653368789,0.02011040092830669,0.15825651982504366,0.0
0.05395532297555482,0.02009672166070004,0.15826188424371293,0.0
0.05397356199903035,0.020101549637502387,0.15827931860438807,0.0
0.05397570776649806,0.020094575893232332,0.15827851394158768,0.0
0.05394888567315169,0.02011040092830669,0.15827288130198494,0.0
0.05395559119648828,0.020121666207512164,0.15826832154611606,0.0
0.0539451305800832,0.02009725810256697,0.15827958682532153,0.0
0.053961760277957946,0.02010020853283507,0.15829004744172662,0.0
0.05395773696395599,0.020100744974701996,0.15831177333733717,0.0
0.05392796444034152,0.02007982374189183,0.15831713775600645,0.0
0.05394164370794817,0.02008491993962764,0.15833242634921388,0.0
0.05396122383609102,0.020143660324056185,0.15835415224482444,0.0
0.05395478653368789,0.020121934428445627,0.15834717850055438,0.0
0.053949422115018617,0.02008867503269613,0.15834020475628433,0.0
0.05393735217301275,0.02009672166070004,0.15835334758202405,0.0
0.05394164370794817,0.020111473812040544,0.15837453703576768,0.0
0.0539480810103513,0.020129712835516074,0.15837936501257002,0.0
0.0539421801498151,0.02013454081231842,0.1583691726170984,0.0
0.05394915389408515,0.02012354375404641,0.15833913187255047,0.0
0.05393896149861353,0.02010396362590356,0.1583418140818851,0.0
0.05395317720808711,0.020103427184036633,0.1583300123608127,0.0
0.05396444248729258,0.020148756521791995,0.15830694536053483,0.0
0.053971952673429566,0.020141514556588476,0.15832947591894578,0.0
0.05396417426635912,0.020121934428445627,0.15835200647735673,0.0
0.05395264076622018,0.020110669149240153,0.15834583739588706,0.0
0.053953713649954035,0.020175042173271436,0.15835629801229215,0.0
0.053979194638633085,0.020183625243142274,0.15835602979135868,0.0
0.05395934628955677,0.02013373614951803,0.15833913187255047,0.0
0.053945667021950125,0.020124884858713728,0.15833779076788315,0.0
0.053936279289278896,0.02012515307964719,0.15834315518655243,0.0
0.053926086893807276,0.02014687897525775,0.15834610561682053,0.0
0.05394298481261549,0.020187916778077696,0.15834798316335477,0.0
0.05395559119648828,0.020173701068604118,0.1583434234074859,0.0
0.053953713649954035,0.020166727324334062,0.15834449629121974,0.0
0.053954518312754426,0.02014607431245736,0.15835334758202405,0.0
0.053958809847689845,0.020126225963381046,0.15832920769801231,0.0
0.05394030260328085,0.020146610754324286,0.15834395984935282,0.0
0.05392903732407538,0.02018335702220881,0.15836729507056416,0.0
0.05394298481261549,0.02017316462673719,0.15835871200069332,0.0
0.053955054754621354,0.020156803149795906,0.15836085776816103,0.0
0.053948617452218225,0.020101549637502387,0.1583160648722726,0.0
0.05396417426635912,0.020128103509915292,0.15828334191839002,0.0
0.053960955615157555,0.020155193824195124,0.15829219320919433,0.0
0.053953713649954035,0.020121666207512164,0.1582916567673274,0.0
0.05396766113849415,0.02012515307964719,0.15830023983719824,0.0
0.053958809847689845,0.020120861544711773,0.15830748180240176,0.0
0.053958005184889454,0.020112814916707862,0.15831633309320606,0.0
0.05397383021996381,0.020102890742169706,0.15832357505840958,0.0
0.05396953868502839,0.020089747916429986,0.15831713775600645,0.0
0.05397517132463113,0.020105572951504343,0.15832357505840958,0.0
0.0539657835919599,0.020134004370451493,0.15832545260494382,0.0
0.053951567882486326,0.020108523381772443,0.15832250217467572,0.0
0.05396846580129454,0.020114692463242108,0.1583359132213489,0.0
0.05396792935942761,0.02015358449859434,0.15835576157042522,0.0
0.05396712469662722,0.020147147196191213,0.1583337674538812,0.0
0.053968734022228,0.02011415602137518,0.15833644966321583,0.0
0.053979194638633085,0.020116838230709817,0.1583316216864135,0.0
0.05398294973170158,0.020124884858713728,0.1583506653726894,0.0
0.05396551537102644,0.02014687897525775,0.15835602979135868,0.0
0.053977048871165376,0.02014392854498965,0.15833644966321583,0.0
0.05397651242929845,0.020147147196191213,0.15833028058174617,0.0
0.05395022677781901,0.02009725810256697,0.15832169751187533,0.0
0.0539510314406194,0.020153852719527805,0.15835173825642326,0.0
0.05397570776649806,0.02018335702220881,0.15834235052375203,0.0
0.05397517132463113,0.020171287080202945,0.15834127764001818,0.0
0.05398107218516733,0.02014902474272546,0.15833859543068354,0.0
0.05399850654584247,0.02016136290566479,0.15833028058174617,0.0
0.053996628999308224,0.02015707137072937,0.15831660131413952,0.0
0.053978389975832694,0.020133467928584566,0.15830909112800254,0.0
0.05398375439450197,0.020116033567909426,0.1583316216864135,0.0
0.05398375439450197,0.02012649418431451,0.15834959248895555,0.0
0.05399770188304208,0.020136418358852666,0.15834127764001818,0.0
0.05397731709209884,0.02014768363805814,0.15832920769801231,0.0
0.05395907806862331,0.020118715777244063,0.158320356407208,0.0
0.05397597598743152,0.020155998486995515,0.15832384327934304,0.0
0.05396766113849415,0.020204814696885908,0.1583257208258773,0.0
0.05397383021996381,0.02021071555742211,0.15834154586095164,0.0
0.05397275733622996,0.020171823522069872,0.15832169751187533,0.0
0.05396739291756068,0.020145269649656967,0.1583101640117364,0.0
0.053985095499169286,0.02018335702220881,0.1583123097792041,0.0
0.053948617452218225,0.020157607812596297,0.15832652548867768,0.0
0.0539539818708875,0.02015573026606205,0.1583522746982902,0.0
0.05395773696395599,0.020123811974979873,0.1583624670937618,0.0
0.05396953868502839,0.02017450573140451,0.15838231544283812,0.0
0.05395237254528672,0.02014044167285462,0.15832545260494382,0.0
0.05395907806862331,0.02015868069633015,0.1583174059769399,0.0
0.05396739291756068,0.020131053940183392,0.1583345721166816,0.0
0.05398777770850392,0.020178797266339928,0.15833510855854852,0.0
0.05398965525503817,0.020160290021930934,0.15833510855854852,0.0
0.053984290836368895,0.020144464986856576,0.15834422807028628,0.0
0.053979194638633085,0.020120325102844845,0.15833135346548002,0.0
0.05397061156876225,0.020136418358852666,0.15832008818627455,0.0
0.053982145068901186,0.020148756521791995,0.15830479959306712,0.0
0.053978389975832694,0.02014902474272546,0.1583286712561454,0.0
0.053959614510490236,0.02014607431245736,0.15835173825642326,0.0
0.05395559119648828,0.020139368789120767,0.15836380819842913,0.0
0.05395344542902057,0.02013883234725384,0.15836300353562874,0.0
0.05394620346381705,0.020142319219388867,0.15835173825642326,0.0
0.05395612763835521,0.02014044167285462,0.15834986070988902,0.0
0.0539451305800832,0.020127567068048365,0.15831472376760528,0.0
0.05393091487060962,0.020128908172715683,0.15831579665133913,0.0
0.05394405769634934,0.020104231846837024,0.15829916695346438,0.0
0.05393279241714387,0.020138295905386912,0.15830748180240176,0.0
0.053925282231006885,0.020157339591662833,0.15829031566266008,0.0
0.05394888567315169,0.020175578615138363,0.1582887063370593,0.0
0.0539421801498151,0.02014687897525775,0.1582554469413098,0.0
0.05395210432435325,0.020156534928862442,0.15824793675517282,0.0
0.05394003438234739,0.02016592266153367,0.1582592020343783,0.0
0.05395559119648828,0.020198109173549316,0.15825651982504366,0.0
0.053951567882486326,0.020175042173271436,0.15823720791783427,0.0
0.05392125891700493,0.020127567068048365,0.15824820497610628,0.0
0.05393145131247655,0.020144464986856576,0.15829031566266008,0.0
0.05394673990568398,0.02023110034836535,0.1582849512439908,0.0
0.05393359707994426,0.020206692243420154,0.15824337699930394,0.0
0.05392286824260571,0.02019408585954736,0.1582592020343783,0.0
0.053936815731145824,0.020158948917263615,0.1582710037554507,0.0
0.053946471684750516,0.0201871121152773,0.15828468302305734,0.0
0.05393735217301275,0.020208838010887863,0.15828602412772466,0.0
0.05392769621940806,0.020168604870868308,0.1583005080581317,0.0
0.05394003438234739,0.020143123882189258,0.15829219320919433,0.0
0.05392179535887186,0.020133467928584566,0.1582701990926503,0.0
0.0539000694632613,0.020135077254185348,0.1582524965110417,0.0
0.05390436099819672,0.020167800208067917,0.15826456645304757,0.0
0.05391106652153331,0.020187648557144233,0.1582693944298499,0.0
0.053901947009795545,0.020199986720083562,0.15826295712744679,0.0
0.05391053007966638,0.020212056662089428,0.15825437405757595,0.0
0.05392769621940806,0.020175578615138363,0.15822326042929416,0.0
0.05393413352181119,0.020179870150073782,0.1582192371152922,0.0
0.05392635511474074,0.020170750638336017,0.1582288930688969,0.0
0.05391991781233761,0.020179870150073782,0.15822111466182645,0.0
0.05393520640554504,0.020164849777799816,0.1582052896267521,0.0
0.05395478653368789,0.020169677754602162,0.15821065404542137,0.0
0.05391884492860376,0.02015492560326166,0.15821065404542137,0.0
0.053950763219685935,0.020228686359964176,0.15821306803382254,0.0
0.053937620393946215,0.020205351138752835,0.15819912054528243,0.0
0.05391535805646873,0.020158412475396688,0.15819509723128047,0.0
0.053907043207531355,0.020128908172715683,0.15820475318488517,0.0
0.05391348050993448,0.020211251999289036,0.15821762778969142,0.0
0.05390650676566443,0.020183088801275346,0.15819751121968165,0.0
0.053917235603002975,0.020186039231543447,0.15820850827795366,0.0
0.05393815683581314,0.02018898966181155,0.15821172692915522,0.0
0.05393091487060962,0.02019408585954736,0.15822191932462684,0.0
0.05395129966155286,0.02024075630197004,0.1582111904872883,0.0
0.05394030260328085,0.02019408585954736,0.158202339196484,0.0
0.05394164370794817,0.02018469812687613,0.15822942951076382,0.0
0.053944862359149734,0.02014768363805814,0.15823506215036656,0.0
0.053912944068067556,0.02016592266153367,0.15823023417356422,0.0
0.0539236729054061,0.020162704010332107,0.15822996595263075,0.0
0.05393064664967616,0.020177187940739146,0.1582465956505055,0.0
0.053936279289278896,0.020200791382883953,0.1582444498830378,0.0
0.05393091487060962,0.020220639731960265,0.1582444498830378,0.0
0.05390945719593253,0.020185771010609983,0.15824337699930394,0.0
0.053929573765942304,0.020213397766756746,0.15825517872037634,0.0
0.053910798300599846,0.02014902474272546,0.15823881724343505,0.0
0.053925282231006885,0.020195158743281216,0.1582457909877051,0.0
0.05392394112633957,0.020209642673688254,0.15827154019731762,0.0
0.05391053007966638,0.02017316462673719,0.15828468302305734,0.0
0.05390811609126521,0.020155998486995515,0.15827449062758572,0.0
0.05390945719593253,0.020170750638336017,0.15825383761570902,0.0
0.053917235603002975,0.02016297223126557,0.1582326481619654,0.0
0.05392340468447264,0.020173701068604118,0.15822701552236265,0.0
0.05391401695180141,0.020162704010332107,0.15821977355715913,0.0
0.053921527137938394,0.020162435789398643,0.15822191932462684,0.0
0.05389792369579359,0.020179870150073782,0.15821762778969142,0.0
0.05390650676566443,0.020199986720083562,0.15822782018516304,0.0
0.05389953302139437,0.020166995545267526,0.15821762778969142,0.0
0.053893095718991244,0.020161899347531716,0.15821655490595757,0.0
0.05389953302139437,0.020195695185148143,0.15821065404542137,0.0
0.05388987706778968,0.020169677754602162,0.15822433331302801,0.0
0.0538941686027251,0.020177992603539537,0.1582229922083607,0.0
0.05391991781233761,0.02022814991809725,0.15821226337102215,0.0
0.05388558553285426,0.0202026689294182,0.15823130705729807,0.0
0.05390141056792862,0.020212056662089428,0.1582369396969008,0.0
0.05390141056792862,0.02019194009207965,0.15826403001118064,0.0
0.053896046149259344,0.02013239504485071,0.15825651982504366,0.0
0.053909188974999064,0.020186039231543447,0.1582444498830378,0.0
0.05388397620725348,0.020180138371007246,0.15826456645304757,0.0
0.05390087412606169,0.020206692243420154,0.15827288130198494,0.0
0.05391535805646873,0.02019328119674697,0.15827261308105148,0.0
0.05389872835859398,0.020208838010887863,0.15825786092971098,0.0
0.053907847870331746,0.020188453219944624,0.1582554469413098,0.0
0.05390677498659789,0.020192744754880042,0.15826322534838025,0.0
0.05390838431219867,0.02018738033621077,0.1582605431390456,0.0
0.05391267584713409,0.02019918205728317,0.15825517872037634,0.0
0.05390141056792862,0.020144196765923113,0.15824820497610628,0.0
0.05390731142846482,0.02015626670792898,0.15824257233650355,0.0
