0.010121316924252144,0.035899762618513416,0.19878014311553752,0.0
0.01016771914574136,0.035935436002664085,0.19882413134862556,0.0
0.010179520866813762,0.03602716756190867,0.19880776987168428,0.0
0.010136873738393037,0.0359973950382942,0.19876834139446511,0.0
0.01012909533132259,0.035984520433487946,0.1988083063135512,0.0
0.010130168215056445,0.03596654963094587,0.19882118091835746,0.0
0.010115684284649406,0.0359338266770633,0.1988016007902146,0.0
0.010107637656645496,0.035955016130806934,0.1987720964875336,0.0
0.010105491889177786,0.03593704532826487,0.198743396847653,0.0
0.010115684284649406,0.03588206003690481,0.19873052224284674,0.0
0.010147870796665048,0.035832707385147496,0.19873910531271757,0.0
0.010136605517459573,0.03585979769942733,0.19872730359164517,0.0
0.010131509319723763,0.03577128479138431,0.19870235904483305,0.0
0.010153503436267785,0.03581849167567392,0.19871174677750428,0.0
0.010198832774023147,0.03595179747960537,0.1987211345101755,0.0
0.010184080622682645,0.035930339804928275,0.19863744957893484,0.0
0.010168523808541751,0.03596869539841358,0.19853713494981942,0.0
0.010147870796665048,0.03586891721116509,0.19847249370485467,0.0
0.010143579261729629,0.03589573930451146,0.1985889015899779,0.0
0.010124535575453708,0.0358681125483647,0.19861840589265892,0.0
0.010109246982246278,0.03591183256051928,0.19856556636876657,0.0
0.010088593970369573,0.035901908385981125,0.1985172866007431,0.0
0.01007679224929717,0.03582922051301247,0.19851862770541043,0.0
0.01007813335396449,0.035764847488981184,0.19853123408928322,0.0
0.010116220726516334,0.03593489956079716,0.19853767139168635,0.0
0.010124267354520244,0.035980765340419454,0.19849180561206406,0.0
0.010101468575175831,0.03590378593251537,0.19845479112324607,0.0
0.01010361434264354,0.03591183256051928,0.19845210891391143,0.0
0.010077596912097562,0.03580454418713381,0.19839980583188602,0.0
0.01006794095849287,0.035783086512456715,0.19835152606386255,0.0
0.010088325749436109,0.03597861957295174,0.19834482054052596,0.0
0.010093958389038848,0.03593650888639794,0.19835474471506412,0.0
0.010077865133031026,0.035932485572395985,0.19838317613401127,0.0
0.010063917644490914,0.035922293176924365,0.19837164263387233,0.0
0.010087252865702254,0.03589708040917878,0.19839605073881753,0.0
0.01010280967984315,0.035917196979188555,0.19839792828535177,0.0
0.010081352005166053,0.03590807746745079,0.19833248237758663,0.0
0.010074110039962534,0.03592282961879129,0.19828527549329703,0.0
0.010089666854103427,0.0358622116878285,0.19827105978382345,0.0
0.010117025389316725,0.0359102232349185,0.1983437476567921,0.0
0.010112465633447842,0.0359131736651866,0.1983045874005064,0.0
0.010100932133308904,0.035919342746656265,0.19829466322596825,0.0
0.010116220726516334,0.03592980336306135,0.19826784113262189,0.0
0.010106832993845105,0.03592712115372671,0.19823860505087434,0.0
0.010090471516903819,0.03591049145585196,0.19821124651566105,0.0
0.010088593970369573,0.035879377827570176,0.19820024945738904,0.0
0.010087789307569182,0.035921488514123974,0.19820024945738904,0.0
0.01011380673811516,0.035951529258671906,0.19824665167887826,0.0
0.010110051645046669,0.035924438944392074,0.1982375321671405,0.0
0.01011085630784706,0.036065254934460514,0.19823780038807395,0.0
0.010084838877301081,0.03599873614296152,0.19824906566727943,0.0
0.010090739737837282,0.03600436878256426,0.19830056408650445,0.0
0.010086716423835327,0.036016438724570124,0.19829198101663362,0.0
0.010057212121154322,0.035984520433487946,0.19830002764463753,0.0
0.010069282063160188,0.03599846792202806,0.19831397513317764,0.0
0.010113538517181697,0.036041919713249174,0.19832336286584887,0.0
0.010108978761312814,0.0360306544340437,0.1983630595640015,0.0
0.010088862191303036,0.03607947064393409,0.1983437476567921,0.0
0.010072232493428288,0.03610119653954465,0.1982986865399702,0.0
0.010063917644490914,0.036060963399525095,0.19827937463276082,0.0
0.010073305377162143,0.036075447329932134,0.19822814443446926,0.0
0.010073305377162143,0.03607008291126286,0.1981798646664458,0.0
0.010090203295970355,0.0360572083064566,0.19817208625937535,0.0
0.01012104870331868,0.03610414696981275,0.19825174787661407,0.0
0.010122658028919462,0.035939727537599504,0.19821634271339686,0.0
0.010109515203179742,0.035931144467728666,0.19816457607323837,0.0
0.010130972877856836,0.036184881470785316,0.19817932822457887,0.0
0.0100832295517003,0.036061768062325486,0.19816538073603876,0.0
0.010065526970091696,0.03600007724762884,0.19817450024777652,0.0
0.01010871054037935,0.03610736562101431,0.19816913582910725,0.0
0.010104419005443932,0.03604165149231571,0.19812192894481764,0.0
0.010102541458909686,0.03601375651523549,0.19811656452614837,0.0
0.010123462691719853,0.03603923750391454,0.1981946168177863,0.0
0.01011809827305058,0.03603199553871102,0.1981946168177863,0.0
0.010089666854103427,0.0360365552945799,0.19817879178271194,0.0
0.010089398633169964,0.036045674806317665,0.19819005706191742,0.0
0.01010280967984315,0.03601268363150163,0.19822143891113267,0.0
0.010112197412514378,0.03600973320123353,0.19823619106247317,0.0
0.010109515203179742,0.035999004363894985,0.19823538639967278,0.0
0.010103346121710077,0.03599954080576191,0.19823860505087434,0.0
0.010122121587052535,0.036009196759366605,0.19824879744634596,0.0
0.010134996191858791,0.036004100561630795,0.19822009780646535,0.0
0.010121585145185607,0.03599793148016113,0.1982101736319272,0.0
0.010127754226655272,0.036124263539822524,0.198263281376753,0.0
0.010114611400915552,0.0360483570156523,0.19826059916741837,0.0
0.01009771348210734,0.03595903944480889,0.1982536254231483,0.0
0.010092885505304992,0.03595260214240576,0.19822009780646535,0.0
0.010089935075036891,0.036088590155671854,0.19815062858469826,0.0
0.010093958389038848,0.036036287073646436,0.19817798711991155,0.0
0.010096640598373485,0.035996053933626884,0.19824128726020898,0.0
0.010055334574620076,0.03586891721116509,0.1981702087128411,0.0
0.010051847702485048,0.03595179747960537,0.19824075081834205,0.0
0.010049433714083875,0.035987470863756046,0.19826569536515418,0.0
0.01003950953954572,0.03593784999106526,0.1982973454353029,0.0
0.010028244260340245,0.035916392316388164,0.19832497219144965,0.0
0.010013760329933206,0.03593919109573258,0.19828929880729898,0.0
0.010019392969535943,0.03592282961879129,0.19827937463276082,0.0
0.010044069295414602,0.03591987918852319,0.19827561953969233,0.0
0.010053725249019294,0.035899762618513416,0.1982404825974086,0.0
0.010053993469952758,0.03589010666490872,0.19821634271339686,0.0
0.010083497772633763,0.03591156433958582,0.19824155548114245,0.0
0.010123462691719853,0.035909150351184645,0.19827159622569038,0.0
0.010092349063438064,0.03577772209378744,0.19824906566727943,0.0
0.010084838877301081,0.03576806614018275,0.1983230946449154,0.0
0.010072500714361752,0.03593007158399481,0.1983748612850739,0.0
0.010075451144629852,0.03590593169998308,0.1984309194601678,0.0
0.010079206237698344,0.03590083550224727,0.19846739750711886,0.0
0.010066868074759015,0.03587454985076783,0.19847061615832043,0.0
0.010054529911819685,0.0357691390239166,0.1984279690298997,0.0
0.010068477400359797,0.03587803672290286,0.19846256953031652,0.0
0.01006794095849287,0.03589064310677565,0.198484831867794,0.0
0.010063917644490914,0.035874818071701293,0.19842823725083317,0.0
0.01005855322582164,0.035887424455574087,0.19843628387883708,0.0
0.010079206237698344,0.03592712115372671,0.1985534964267607,0.0
0.010092885505304992,0.03595260214240576,0.1985395489382206,0.0
0.010075719365563316,0.035939727537599504,0.19845425468137914,0.0
0.010082424888899908,0.03598344754975409,0.19845693689071378,0.0
0.010106028331044714,0.03598532509628834,0.19852050525194467,0.0
0.010110588086913596,0.03590217660691459,0.1985433040312891,0.0
0.010114343179982088,0.03595769834014157,0.19854303581035562,0.0
0.01012319447078639,0.03610361052794582,0.19853713494981942,0.0
0.010140092389594601,0.03608966303940571,0.19853391629861786,0.0
0.010148407238531975,0.03608671260913761,0.19851058107740652,0.0
0.010151894110667003,0.036053721434321576,0.19848965984459635,0.0
0.010144115703596556,0.03609824610927655,0.19855081421742607,0.0
0.010130436435989909,0.03610629273728046,0.19856127483383115,0.0
0.010157258529336277,0.03611594869088515,0.19857012612463545,0.0
0.010161013622404768,0.03601026964310046,0.19861867411359238,0.0
0.01014143349426192,0.036085639725403754,0.19865005596280763,0.0
0.010127754226655272,0.036206070924528946,0.1986149190205239,0.0
0.010143042819862702,0.03616315557517476,0.1985964117761149,0.0
0.01014223815706231,0.03617576195904755,0.1986023126366511,0.0
0.010113538517181697,0.03615752293557202,0.19858326895037517,0.0
0.010093690168105384,0.036139015691163026,0.1985816596247744,0.0
0.010125072017320635,0.036174689075313696,0.19858273250850825,0.0
0.010128022447588736,0.03610092831861118,0.1985446451359564,0.0
0.010110051645046669,0.03604916167845269,0.19846686106525194,0.0
0.010095835935573094,0.036004905224431186,0.19849046450739674,0.0
0.010139824168661138,0.03613365127249375,0.1986237703113282,0.0
0.010132850424391082,0.036123727097955596,0.1986251114159955,0.0
0.010112465633447842,0.03608483506260336,0.19859963042731646,0.0
0.010091544400637673,0.03609207702780688,0.1985905109155787,0.0
0.010095299493706167,0.03609717322554269,0.19860633595065305,0.0
0.01010790587757896,0.0360993189930104,0.19859748465984875,0.0
0.01010871054037935,0.03614089323769727,0.19855537397329495,0.0
0.010106028331044714,0.036056671864589676,0.19852130991474506,0.0
0.01010871054037935,0.036029581550309844,0.19858112318290747,0.0
0.010140360610528065,0.03605023456218655,0.19862403853226165,0.0
0.010133655087191473,0.03604031038764839,0.1985711990083693,0.0
0.010108174098512423,0.0359220249559909,0.19853096586834976,0.0
0.010112465633447842,0.03595930766574235,0.19860714061345344,0.0
0.010117561831183652,0.0360904677022061,0.1986192105554593,0.0
0.01011809827305058,0.035971914049615146,0.19860123975291724,0.0
0.01011300207531477,0.035898153292912634,0.19858487827597596,0.0
0.010125876680121026,0.03601482939896934,0.19860258085758456,0.0
0.010135532633725719,0.036029581550309844,0.1986554203814769,0.0
0.010125608459187562,0.03597808313108481,0.19867580517242014,0.0
0.010128022447588736,0.03600088191042923,0.19866561277694852,0.0
0.010142506377995774,0.03602984977124331,0.1986924348702949,0.0
0.010150553005999685,0.03598908018935683,0.1987278400335121,0.0
0.010169060250408679,0.03596279453787738,0.19873642310338294,0.0
0.010134459749991864,0.03594375085160146,0.19869618996336338,0.0
0.010131509319723763,0.03592122029319051,0.19868680223069216,0.0
0.010146261471064266,0.0359700365030809,0.19875466212685847,0.0
0.010152162331600467,0.03598398399162102,0.19879543170874495,0.0
0.01012909533132259,0.035948578828403806,0.19875197991752383,0.0
0.010124267354520244,0.035982374666020236,0.19873320445218137,0.0
0.01012909533132259,0.035944823735335314,0.19882118091835746,0.0
0.010139019505860747,0.03596064877040967,0.19889145480292497,0.0
0.010128827110389127,0.035926584711859784,0.1988474665698369,0.0
0.010118366493984043,0.03580910394300269,0.19883298263942986,0.0
0.010135800854659182,0.03598022889855253,0.19884424791863534,0.0
0.010155649203735495,0.036047015910984984,0.19886409626771168,0.0
0.010168255587608288,0.03598773908468951,0.19886409626771168,0.0
0.010160477180537841,0.036007050991898895,0.19884263859303455,0.0
0.010155380982802031,0.03599042129402415,0.198850417000105,0.0
0.01016771914574136,0.03595930766574235,0.19886409626771168,0.0
0.010151357668800076,0.03592980336306135,0.19885819540717548,0.0
0.01014733435479812,0.03600946498030007,0.19889145480292497,0.0
0.010119439377717898,0.03602287602697325,0.19890432940773123,0.0
0.010129363552256054,0.03601536584083627,0.19893356548947877,0.0
0.010128827110389127,0.03595126103773844,0.19893758880348072,0.0
0.010134459749991864,0.03600946498030007,0.19892578708240832,0.0
0.010140092389594601,0.03603896928298107,0.1989185451172048,0.0
0.010143311040796165,0.036063913829793195,0.1989518045129543,0.0
0.010138751284927283,0.03602046203857208,0.19897567617603257,0.0
0.010144652145463484,0.03601026964310046,0.19896628844336134,0.0
0.010120512261451753,0.03598344754975409,0.19893732058254726,0.0
0.010131509319723763,0.036090735923139564,0.19895502316415586,0.0
0.010127217784788345,0.03593784999106526,0.19899257409484078,0.0
0.010137678401193428,0.036031190875910626,0.19904729116526737,0.0
0.010132582203457618,0.03612024022582057,0.19905238736300318,0.0
0.010130972877856836,0.03610012365581079,0.19907330859581335,0.0
0.010133655087191473,0.03610066009767772,0.19910120357289357,0.0
0.01012104870331868,0.036052112108720794,0.19915162910838474,0.0
0.01010066391237544,0.03604916167845269,0.19914411892224776,0.0
0.010087521086635718,0.036028240445642526,0.19909718025889162,0.0
0.010085107098234545,0.03606632781819437,0.19911327351489944,0.0
0.01007813335396449,0.036040578608581855,0.19909825314262547,0.0
0.01007893801676488,0.036047015910984984,0.19907089460741217,0.0
0.010086716423835327,0.036055062538988894,0.199079477677283,0.0
0.010120244040518289,0.03603092265497716,0.19910147179382703,0.0
0.010133118645324546,0.0360247535735075,0.19909127939835541,0.0
0.010118634714917507,0.036058012969256995,0.19908055056101687,0.0
0.010096640598373485,0.03604433370165035,0.19907679546794838,0.0
0.010090203295970355,0.03597379159614939,0.19908806074715385,0.0
0.010109515203179742,0.03611031605128241,0.19911407817769983,0.0
0.010093153726238455,0.036055062538988894,0.19906392086314212,0.0
0.01010280967984315,0.03608081174860141,0.1990604339910071,0.0
0.01010576011011125,0.03608993126033917,0.19909181584022234,0.0
0.010120244040518289,0.036085103283536826,0.19906445730500905,0.0
0.010093421947171919,0.036028240445642526,0.1989829181412361,0.0
0.0100920808425046,0.03593409489799677,0.19897192108296408,0.0
0.010125608459187562,0.03596494030534509,0.19898077237376838,0.0
0.010139555947727674,0.03607142401593018,0.1989362476988134,0.0
0.010126681342921417,0.03603306842244487,0.1989303468382772,0.0
0.01012104870331868,0.03607812953926677,0.19891452180320285,0.0
0.010113538517181697,0.03600356411976387,0.1989273964080091,0.0
0.010140360610528065,0.03598130178228638,0.1989687024317625,0.0
0.010139824168661138,0.03594884704933727,0.19892578708240832,0.0
0.010121585145185607,0.03596842717748012,0.1988721428957156,0.0
0.010124267354520244,0.03603011799217677,0.19885926829090933,0.0
0.010154039878134713,0.03603896928298107,0.19883727417436528,0.0
0.010158599634003595,0.03596064877040967,0.1988276182207606,0.0
0.01014438392453002,0.03601912093390476,0.19881232962755316,0.0
0.010143311040796165,0.03610870672568163,0.19876351341766277,0.0
0.010140628831461529,0.03602341246884018,0.19873508199871562,0.0
0.010178447983079908,0.03606874180659554,0.19871711119617355,0.0
0.01018005730868069,0.0360786659811337,0.1986532746140092,0.0
0.010171742459743316,0.03606793714379515,0.1986532746140092,0.0
0.010185421727349963,0.03601241541056817,0.19864603264880568,0.0
0.010178447983079908,0.03600651455003197,0.19861009104372154,0.0
0.010166646262007506,0.03596789073561319,0.19853391629861786,0.0
0.010175229331878343,0.03592578004905939,0.1985387442754202,0.0
0.010187835715751136,0.03593704532826487,0.19856207949663154,0.0
0.010176033994678734,0.03588635157184023,0.19849877935633412,0.0
0.010157258529336277,0.036055867201789285,0.19845505934417954,0.0
0.01013633729652611,0.0359826428869537,0.19838719944801322,0.0
0.010175497552811807,0.036026631120041744,0.1983542082731972,0.0
0.010189981483218846,0.03603011799217677,0.19834911207546138,0.0
0.010191859029753092,0.03597781491015135,0.19833596924972166,0.0
0.010186494611083818,0.03591236900238621,0.19829815009810328,0.0
0.010185421727349963,0.03593597244453101,0.19827105978382345,0.0
0.010197759890289293,0.03604889345751923,0.19825255253941446,0.0
0.010186762832017282,0.035971914049615146,0.19821553805059647,0.0
0.010189176820418455,0.035974059817082855,0.19820615031792524,0.0
0.010206611181093594,0.03598505687535487,0.19820239522485675,0.0
0.010226191309236443,0.03594911527027073,0.19819703080618747,0.0
0.010228068855770689,0.03592926692119442,0.198204272771391,0.0
0.010199905657757002,0.035895471083578,0.19821124651566105,0.0
0.010185421727349963,0.03589278887424336,0.19823029020193697,0.0
0.010193468355353874,0.03594670128186956,0.19825630763248295,0.0
0.010189176820418455,0.03591880630478934,0.1982485292254125,0.0
0.01017496111094488,0.03590351771158191,0.19822626688793502,0.0
0.010164232273606333,0.03592980336306135,0.19821661093433032,0.0
0.010157258529336277,0.03591773342105548,0.19821339228312876,0.0
0.010173888227211025,0.03595018815400459,0.19818013288737926,0.0
0.010147066133864657,0.03585470150169152,0.19813721753802507,0.0
0.010150016564132757,0.035813663698871574,0.19815867521270217,0.0
0.010185421727349963,0.03592095207225705,0.19817047693377457,0.0
0.010197759890289293,0.03601161074776778,0.19816779472443993,0.0
0.010202051425224712,0.03593919109573258,0.1981621620848372,0.0
0.01019615056468851,0.03588983844397526,0.19814177729389396,0.0
0.010193468355353874,0.03590056728131381,0.19810288525854172,0.0
0.010192663692553483,0.03586730788556431,0.19807633138612882,0.0
0.010176570436545662,0.035845850210887216,0.1980535326067844,0.0
0.010147602575731584,0.0358112497104704,0.19801866388543413,0.0
0.010173888227211025,0.03585067818768956,0.1980497775137159,0.0
0.010210098053228622,0.03581178615233733,0.19804950929278245,0.0
0.010188372157618064,0.03578710982645867,0.19806184745572178,0.0
0.010163964052672869,0.035785232279924424,0.19805970168825407,0.0
0.01015752675026974,0.03575492331444303,0.19806667543252413,0.0
0.010176570436545662,0.03583673069914945,0.1981036899213421,0.0
0.010173888227211025,0.035858188373826545,0.198100739491074,0.0
0.010155649203735495,0.03584048579221794,0.19809832550267284,0.0
0.010156990308402813,0.03581259081513772,0.19811736918894876,0.0
0.010199637436823538,0.035778794977521296,0.19814124085202703,0.0
0.010212243820696331,0.03590754102558386,0.1981339988868235,0.0
0.010206879402027058,0.03593999575853297,0.1981621620848372,0.0
0.010206879402027058,0.03587535451356822,0.19815116502656518,0.0
0.01021358492536365,0.03576538393084811,0.19815116502656518,0.0
0.010221363332434097,0.035815809466339284,0.1981533107940329,0.0
0.010212512041629795,0.03595984410760928,0.19808947421186854,0.0
0.010189176820418455,0.03590029906038034,0.1980071303852952,0.0
0.010197223448422365,0.03582868407114554,0.19811173654934602,0.0
0.010193468355353874,0.035808567501135764,0.19814982392189787,0.0
0.010204733634559348,0.035826001861810904,0.19810690857254368,0.0
0.01021868112309946,0.03583243916421403,0.19808250046759848,0.0
0.01021438958816404,0.03584129045501833,0.1980808911419977,0.0
0.010244162111778511,0.03582653830367783,0.19810422636320904,0.0
0.010226191309236443,0.03580695817553498,0.19808062292106424,0.0
0.010203928971758957,0.035735074965366716,0.19805192328118362,0.0
0.010208756948561304,0.035791937803261016,0.19814633704976284,0.0
0.010218949344032923,0.03575626441911035,0.1982056138760583,0.0
0.010234774379107282,0.03582331965247627,0.19819059350378435,0.0
0.010242284565244265,0.035946433060936096,0.1982227800158,0.0
0.010228337076704152,0.03585684726915923,0.19823806860900742,0.0
0.010242016344310802,0.03583431671074828,0.19822814443446926,0.0
0.010231287506972254,0.03586060236222772,0.19821956136459842,0.0
0.010214121367230577,0.03587910960663671,0.19821339228312876,0.0
0.010203928971758957,0.03589117954864258,0.19822680332980194,0.0
0.010218144681232532,0.03591156433958582,0.19825630763248295,0.0
0.010214657809097505,0.03586489389716314,0.1982595262836845,0.0
0.010192663692553483,0.035858188373826545,0.19824396946954362,0.0
0.010166646262007506,0.03581178615233733,0.19824370124861015,0.0
0.010180325529614153,0.035882864699705204,0.19832255820304848,0.0
0.010172547122543707,0.03589708040917878,0.19836842398267077,0.0
0.01015457632000164,0.035881523595037886,0.19833757857532244,0.0
0.010145188587330411,0.03587830494383632,0.1983193395518469,0.0
0.010169328471342142,0.03590566347904962,0.19832497219144965,0.0
0.010188372157618064,0.03586864899023163,0.19832497219144965,0.0
0.010162086506138623,0.03574580380270526,0.198348307412661,0.0
0.010149211901332366,0.0358984215138461,0.19839068632014825,0.0
0.010171742459743316,0.035871331199566266,0.19837512950600736,0.0
0.01020124676242432,0.035844240885286434,0.19837647061067468,0.0
0.010197223448422365,0.035826001861810904,0.198359304470933,0.0
0.01021063449509555,0.035864089234362746,0.19835313538946334,0.0
0.010210366274162086,0.03578415939619057,0.198322289982115,0.0
0.010220558669633706,0.035754655093509564,0.19835206250572948,0.0
0.01021143915789594,0.035778794977521296,0.1983791528200093,0.0
0.01021063449509555,0.03578335473339018,0.1983475027498606,0.0
0.010239065914042701,0.03578845093112599,0.1983732519594731,0.0
0.010258377821252086,0.03578147718685593,0.19842528682056507,0.0
0.010234774379107282,0.03575277754697532,0.19845881443724803,0.0
0.010211170936962477,0.03574392625617102,0.19841268043669227,0.0
0.01022163155336756,0.03569028206947828,0.19842099528562965,0.0
0.010203124308958566,0.03566185065053113,0.19840329270402104,0.0
0.010162354727072087,0.03564334340612214,0.19840999822735764,0.0
0.01017710687841259,0.03564227052238828,0.19844754915804255,0.0
0.010222167995234488,0.035654072243460684,0.198466324623385,0.0
0.01021948578589985,0.03560471959170337,0.19842528682056507,0.0
0.01021653535563175,0.03566399641799884,0.19838022570374317,0.0
0.01019829633215622,0.035673115929736605,0.19832953194731853,0.0
0.010211975599762868,0.03563127346411627,0.19835179428479602,0.0
0.010214926030030968,0.035637442545585936,0.19837968926187624,0.0
0.01019320013442041,0.035657022673728785,0.19834428409865903,0.0
0.010197759890289293,0.03564146585958789,0.19837244729667272,0.0
0.010216267134698287,0.03566345997613191,0.1983933685294829,0.0
0.010210366274162086,0.03565380402252722,0.19837566594787429,0.0
0.010194004797220801,0.03562403149891275,0.19834723452892714,0.0
0.010186494611083818,0.03553793257927091,0.1983238993077158,0.0
0.010207415843893985,0.035595868300899065,0.19832068065651423,0.0
0.010219754006833314,0.03570691176735303,0.1982965407725025,0.0
0.010195882343755047,0.03568652697640979,0.19826515892328725,0.0
0.010210902716029013,0.035681162557740516,0.19825577119061602,0.0
0.010224850204569124,0.035628591254781634,0.19824155548114245,0.0
0.010231823948839182,0.03561678953370923,0.19823619106247317,0.0
0.010215462471897896,0.03562483616171314,0.19820615031792524,0.0
0.010215462471897896,0.03564334340612214,0.1982190249227315,0.0
0.01021868112309946,0.03564495273172292,0.19824745634167865,0.0
0.010228337076704152,0.03561947174304387,0.19825121143474714,0.0
0.010221899774301024,0.03563261456878359,0.19823243596940468,0.0
0.010206074739226667,0.03564817138292448,0.19820668675979217,0.0
0.010231555727905718,0.035641734080521355,0.19822251179486652,0.0
0.010241748123377338,0.03562483616171314,0.1982455787951444,0.0
0.010213048483496722,0.03563207812691666,0.19820695498072563,0.0
0.010209293390428231,0.035631541685049735,0.19819059350378435,0.0
0.010227264192970298,0.03565594978999493,0.19818683841071585,0.0
0.010251135856048567,0.03563422389438437,0.19815357901496636,0.0
0.010247112542046612,0.03553229993966817,0.19811683274708183,0.0
0.010206611181093594,0.035606060696370685,0.19813453532869044,0.0
0.010220558669633706,0.035637442545585936,0.19818147399204658,0.0
0.010221899774301024,0.03556770510288538,0.19819408037591937,0.0
0.010223509099901806,0.035679553232139734,0.19820212700392328,0.0
0.01022672775110337,0.035648976045724874,0.1981525061312325,0.0
0.010239602355909629,0.03563315101065052,0.19814633704976284,0.0
0.01026374223992136,0.03558916277756247,0.1981983719108548,0.0
0.010248185425780466,0.035544906323540966,0.19818603374791546,0.0
0.010222972658034879,0.035539005463004765,0.19815411545683329,0.0
0.010223509099901806,0.035563681788883424,0.19814606882882937,0.0
0.010244698553645439,0.03556421823075035,0.19813882686362586,0.0
0.010251135856048567,0.035547052091008675,0.19814767815443016,0.0
0.010285199914598454,0.03562376327797929,0.1980926928630701,0.0
0.010302634275273594,0.03555831737021415,0.19804870462998206,0.0
0.010273666414459516,0.03547731464830812,0.19801571345516603,0.0
0.010270447763257952,0.035621349289578115,0.19807150340932647,0.0
0.010269911321391025,0.03560579247543722,0.19806292033945563,0.0
0.010277689728461471,0.035647634941057556,0.19804012156011122,0.0
0.010273666414459516,0.035628591254781634,0.1980084714899625,0.0
0.01024630787924622,0.035541955893272865,0.19801866388543413,0.0
0.010237993030308846,0.035654072243460684,0.1980535326067844,0.0
0.010263205798054433,0.03575009533764068,0.1980521915021171,0.0
0.010253013402582813,0.03571066686042152,0.19800981259462982,0.0
0.01021573069283136,0.035678212127472415,0.19797574853607994,0.0
0.010221363332434097,0.035912100781452745,0.19794973110553396,0.0
0.01022458198363566,0.03591692875825509,0.197993719338622,0.0
0.01023745658844192,0.035979156014818665,0.19802510118783725,0.0
0.010244698553645439,0.036053721434321576,0.19800981259462982,0.0
0.010235579041907673,0.03597861957295174,0.19797279810581184,0.0
0.01022887351857108,0.03597808313108481,0.197964215035941,0.0
0.010245771437379293,0.03590888213025118,0.19796072816380597,0.0
0.01028198126339689,0.03594884704933727,0.19798352694315038,0.0
0.010290564333267728,0.03599873614296152,0.19794973110553396,0.0
0.01026883843765717,0.035921488514123974,0.19797843074541457,0.0
0.010308535135809795,0.03594455551440185,0.19801759100170027,0.0
0.01031765464754756,0.03594536017720224,0.19804441309504664,0.0
0.010281444821529963,0.0358984215138461,0.19804199910664547,0.0
0.010260255367786332,0.035847995978354925,0.1980130312458314,0.0
0.010294587647269683,0.035997663259227666,0.1980269787343715,0.0
0.010303170717140521,0.035924975386259,0.1980551419323852,0.0
0.010282517705263818,0.03588393758343906,0.1980682847581249,0.0
0.010261060030586723,0.03588608335090677,0.1980551419323852,0.0
0.010283858809931136,0.036012951852435096,0.19808115936293116,0.0
0.010290564333267728,0.035952065700538834,0.19808625556066697,0.0
0.010272593530725661,0.03591773342105548,0.19808625556066697,0.0
0.010257841379385159,0.03587830494383632,0.19806774831625798,0.0
0.01026159647245365,0.035845045548086825,0.1980639932231895,0.0
0.010279299054062253,0.035874818071701293,0.19809886194453977,0.0
0.010270715984191416,0.03587803672290286,0.1980808911419977,0.0
0.010248721867647394,0.0358082992802023,0.19803448892050848,0.0
0.010255159170050522,0.03591585587452124,0.19804119444384508,0.0
0.010249526530447785,0.03586006592036079,0.19807552672332843,0.0
0.010259450704985941,0.035894666420777606,0.19820024945738904,0.0
0.010240675239643483,0.03590056728131381,0.19816672184070608,0.0
0.010244966774578902,0.035881523595037886,0.19813963152642625,0.0
0.01025140407698203,0.03579971621033146,0.1981289026890877,0.0
0.010260523588719796,0.03575814196564459,0.19813963152642625,0.0
0.010272325309792198,0.03590217660691459,0.19811522342148105,0.0
0.01024550321644583,0.03597137760774822,0.19810395814227558,0.0
0.010248185425780466,0.03589144776957604,0.19813373066589005,0.0
0.010274471077259907,0.035840754013151406,0.1981554565615006,0.0
0.010280640158729572,0.03582063744314163,0.19814043618922664,0.0
0.010266424449255997,0.03582814762927861,0.198108249677211,0.0
0.010250331193248176,0.03576243350058001,0.19814177729389396,0.0
0.010246039658312757,0.035738025395634816,0.19819300749218552,0.0
0.010244966774578902,0.03575867840751152,0.1981605527592364,0.0
0.010235579041907673,0.03578871915205945,0.19814258195669435,0.0
0.010265619786455606,0.035803471303399954,0.19815116502656518,0.0
0.010278762612195326,0.03576806614018275,0.19815384723589982,0.0
0.010264815123655215,0.03575814196564459,0.19814177729389396,0.0
0.010255427390983986,0.0357573373028442,0.19816189386390373,0.0
0.010254354507250131,0.03573319741883247,0.1981916663875182,0.0
0.010276348623794153,0.03575492331444303,0.19822975376007004,0.0
0.010262132914320578,0.03571254440695577,0.19821634271339686,0.0
0.010248721867647394,0.03569511004628063,0.19821097829472759,0.0
0.010240138797776556,0.035622153952378506,0.1982064185388587,0.0
0.010248185425780466,0.035705034220818783,0.19824370124861015,0.0
0.010235042600040746,0.03574768134923951,0.19827266910942423,0.0
0.010223240878968342,0.035630737022249344,0.19821714737619725,0.0
0.010228605297637616,0.035660777766797276,0.1981790600036454,0.0
0.010253281623516276,0.03580883572206923,0.1982270715507354,0.0
0.010267497332989851,0.03579220602419448,0.1982463834579448,0.0
0.010243089228044656,0.03573883005843521,0.19822090246926574,0.0
0.010258377821252086,0.03576457926804772,0.1982034681085906,0.0
0.01026588800738907,0.0357425851515037,0.198215269829663,0.0
0.01027688506566108,0.03573909827936867,0.1982514796556806,0.0
0.01027903083312879,0.035721127476826604,0.198252284318481,0.0
0.010271252426058343,0.0357093257557542,0.19823243596940468,0.0
0.010286809240199236,0.03575358220977571,0.19823619106247317,0.0
0.010279567274995717,0.03576216527964655,0.1982329724112716,0.0
0.010275275740060298,0.03573829361656828,0.19828205684209546,0.0
0.010262669356187505,0.03574124404683638,0.19826730469075496,0.0
0.01025059941418164,0.03578040430312208,0.19830270985397216,0.0
0.010257573158451695,0.03582197854780895,0.19832202176118155,0.0
0.010254354507250131,0.03570235201148415,0.19825898984181758,0.0
0.0102331650535065,0.03566345997613191,0.19826784113262189,0.0
0.010248185425780466,0.03582439253621012,0.19830941537730876,0.0
0.010235579041907673,0.03576940724485007,0.19829761365623635,0.0
0.01021143915789594,0.035740171163102526,0.19825979450461798,0.0
0.010210902716029013,0.0357307834304313,0.19821553805059647,0.0
0.010239870576843092,0.03574285337243716,0.1981924710503186,0.0
0.010239334134976165,0.035610352231306104,0.19818120577111312,0.0
0.010229946402304934,0.03570852109295381,0.19829198101663362,0.0
0.010216267134698287,0.035831902722347105,0.19826650002795457,0.0
0.010208220506694376,0.03594589661906917,0.19827722886529311,0.0
0.010211170936962477,0.035896812188245315,0.19829332212130094,0.0
0.010224045541768733,0.035939727537599504,0.1982581851790172,0.0
0.010207415843893985,0.03586355279249582,0.19828286150489585,0.0
0.010200978541490857,0.03582787940834515,0.19834213833119133,0.0
0.010209025169494767,0.0358112497104704,0.19831558445877842,0.0
0.010201514983357784,0.035855237943558445,0.19833972434279015,0.0
0.01019534590188812,0.03585657904822576,0.19831907133091345,0.0
0.010191322587886164,0.03592846225839403,0.1982788381908939,0.0
0.010158867854937059,0.03588206003690481,0.19824316480674323,0.0
0.010192663692553483,0.03594750594466995,0.19832631329611697,0.0
0.01021063449509555,0.035932485572395985,0.19834616164519328,0.0
0.010206879402027058,0.035872672304233584,0.19833757857532244,0.0
0.010229409960438007,0.0359043223743823,0.19835098962199563,0.0
0.0102361154837746,0.03597218227054861,0.19837593416880775,0.0
0.010238529472175774,0.03590029906038034,0.1983933685294829,0.0
0.01024335744897812,0.03589493464171107,0.1983424065521248,0.0
0.010233701495373428,0.0358681125483647,0.19832068065651423,0.0
0.010238797693109238,0.03586864899023163,0.19833972434279015,0.0
0.010254622728183595,0.03584906886208878,0.19833704213345552,0.0
0.010217340018432141,0.035755459756309955,0.19829493144690172,0.0
0.01020124676242432,0.03589708040917878,0.19828581193516395,0.0
0.010189176820418455,0.0358563108272923,0.19829493144690172,0.0
0.010227800634837225,0.03588903378117487,0.1983335552613205,0.0
0.010220022227766778,0.03584129045501833,0.19836949686640462,0.0
0.010203660750825494,0.03578845093112599,0.19839685540161792,0.0
0.010204465413625885,0.03578442761712403,0.19842340927403082,0.0
0.010218412902165996,0.0357366842909675,0.1984590826581815,0.0
0.010219754006833314,0.035749558895773755,0.198492342053931,0.0
0.010192931913486946,0.03573695251190096,0.19851379972860808,0.0
0.01017496111094488,0.035736416070034034,0.19852747899621473,0.0
0.010192931913486946,0.035732124535098615,0.1985454497987568,0.0
0.010204733634559348,0.035689209185744426,0.19855859262449652,0.0
0.010171474238809852,0.03567338415067007,0.1985661028106335,0.0
0.010170401355075997,0.0356798214530732,0.19859238846211294,0.0
0.010187835715751136,0.035669360836668114,0.19860392196225188,0.0
0.010190517925085773,0.03566882439480119,0.1985875604853106,0.0
0.010134459749991864,0.035528008404732754,0.19857066256650238,0.0
0.01014652969199773,0.03554007834673862,0.1986347673696002,0.0
0.01018005730868069,0.03561893530117694,0.19862269742759434,0.0
0.010187031052950745,0.03569913336028258,0.19863288982306596,0.0
0.010161013622404768,0.035706643546419566,0.19864522798600528,0.0
0.010168523808541751,0.035670970162268896,0.1986200152182597,0.0
0.01019534590188812,0.03565219469692644,0.19863342626493288,0.0
0.01021948578589985,0.0356044513707699,0.1986347673696002,0.0
0.010200710320557393,0.03556850976568577,0.19859802110171568,0.0
0.010196955227488902,0.035568777986619234,0.19859104735744562,0.0
0.010207415843893985,0.03556073135861532,0.19858273250850825,0.0
0.01021868112309946,0.03548884814844706,0.19856583458970004,0.0
0.010224045541768733,0.035421524694147666,0.19856744391530082,0.0
0.010190517925085773,0.03540301744973867,0.19850870353087227,0.0
0.010199100994956611,0.03543493574082086,0.1984751759141893,0.0
0.01020124676242432,0.035350714367713254,0.19847651701885663,0.0
0.010195882343755047,0.03536653940278761,0.19851862770541043,0.0
0.01019534590188812,0.03537163560052342,0.19847490769325585,0.0
0.01019320013442041,0.03533971730944124,0.19845264535577836,0.0
0.010207415843893985,0.035277221831944205,0.19846256953031652,0.0
0.01020553829735974,0.03529063287861739,0.19846149664658266,0.0
0.01020553829735974,0.03542742555468387,0.19841643552976077,0.0
0.010203660750825494,0.03536841694932186,0.1983660099942696,0.0
0.010220290448700242,0.03533220712330426,0.1984561322279134,0.0
0.010200710320557393,0.03527775827381113,0.19846686106525194,0.0
0.010191859029753092,0.03521392169164678,0.1984376249835044,0.0
0.010211975599762868,0.03533435289077197,0.19845103603017758,0.0
0.010222704437101415,0.03529948416942169,0.19845371823951222,0.0
0.01022082689056717,0.035298947727554764,0.19845398646044568,0.0
0.010202051425224712,0.03528419557621426,0.19844111185563942,0.0
0.01020124676242432,0.035283122692480406,0.19840114693655334,0.0
0.01021948578589985,0.03527239385514186,0.19838129858747702,0.0
0.010204733634559348,0.03522357764525147,0.19833811501718937,0.0
0.010196687006555438,0.035142306702411974,0.19832148531931462,0.0
0.0101881039366846,0.03514552535361354,0.1983786163781424,0.0
0.01020044209962393,0.035139356272143873,0.19833677391252205,0.0
0.010202856088025103,0.0350800794458484,0.1983276544007843,0.0
0.010187567494817673,0.03499773561927504,0.19829788187716982,0.0
0.010180325529614153,0.03509375871345505,0.19826971867915613,0.0
0.0101851535064165,0.03511441172533175,0.19827722886529311,0.0
0.010203124308958566,0.03509617270185622,0.1983289955054516,0.0
0.010202587867091639,0.03507847012024762,0.19830995181917568,0.0
0.010184617064549572,0.03508785785291885,0.1982973454353029,0.0
0.010165036936406724,0.035076056131846445,0.19825577119061602,0.0
0.010182739518015326,0.03508222521331611,0.19824316480674323,0.0
0.01019024970415231,0.03499907672394236,0.19828634837703088,0.0
0.010190786146019237,0.0349566978164551,0.19827052334195652,0.0
0.01019320013442041,0.034930143944042195,0.1982359228415397,0.0
0.01021868112309946,0.03493550836271147,0.19826784113262189,0.0
0.010203928971758957,0.03490439473442968,0.19824531057421094,0.0
0.010191859029753092,0.035016779305550964,0.19823726394620703,0.0
0.010189176820418455,0.034999344944875825,0.1982241211204673,0.0
0.01017576577374527,0.03496528088632594,0.1981916663875182,0.0
0.01017791154121298,0.03495428382805393,0.1982168791552638,0.0
0.010166646262007506,0.034955624932721245,0.19814231373576088,0.0
0.010173620006277561,0.03487006245494633,0.1981297073518881,0.0
0.010189445041351919,0.03494006811858035,0.19820400455045753,0.0
0.010198028111222756,0.03503716409649421,0.19819917657365518,0.0
0.010178447983079908,0.03501114666594823,0.19819488503871976,0.0
0.010159940738670914,0.035051379805967786,0.19820749142259256,0.0
0.010137678401193428,0.03505084336410086,0.1982506749928802,0.0
0.010141969936128847,0.03506693662010868,0.19829788187716982,0.0
0.010141701715195383,0.035064522631707506,0.19829332212130094,0.0
0.01013848306399382,0.03506425441077404,0.19828071573742814,0.0
0.010170401355075997,0.03515732707468594,0.19834213833119133,0.0
0.01017281534347717,0.03520694794737672,0.19837888459907585,0.0
0.010176033994678734,0.035212312366045995,0.19839497785508367,0.0
0.010185421727349963,0.03526515188993834,0.19838639478521283,0.0
0.010153235215334322,0.0353045803671575,0.1983445523195925,0.0
0.01015967251773745,0.035266224773672195,0.19841804485536155,0.0
0.010147602575731584,0.03524986329673091,0.19848724585619518,0.0
0.010123462691719853,0.03537512247265845,0.19846310597218345,0.0
0.01011300207531477,0.03547463243897348,0.19844540339057484,0.0
0.010102005017042759,0.03544244592695784,0.1984515724720445,0.0
0.010135532633725719,0.03560579247543722,0.19855832440356305,0.0
0.01011300207531477,0.035611156894106495,0.19859533889238104,0.0
0.01005774856302125,0.035601769161435266,0.19852130991474506,0.0
0.010059357888622032,0.03563127346411627,0.1985543010895611,0.0
0.010069550284093651,0.035690550290411745,0.1986267207415963,0.0
0.010075719365563316,0.03577235767511817,0.19862135632292702,0.0
0.010066868074759015,0.03580964038486962,0.198591852020246,0.0
0.010080279121432199,0.03582868407114554,0.19860204441571763,0.0
0.010104955447310859,0.035881523595037886,0.19868680223069216,0.0
0.010084838877301081,0.03594536017720224,0.19871362432403852,0.0
0.010064990528224769,0.035926584711859784,0.1987071870216354,0.0
0.010070086725960579,0.03591826986292241,0.19871791585897394,0.0
0.010084838877301081,0.03587615917636861,0.198706382358835,0.0
0.010091544400637673,0.03585121462955649,0.19872462138231053,0.0
0.010069818505027115,0.0358740134089009,0.19872462138231053,0.0
0.010082693109833372,0.03586355279249582,0.1987345455568487,0.0
0.0100832295517003,0.03578255007058979,0.19872086628924204,0.0
0.010106564772911641,0.03582707474554476,0.19873239978938098,0.0
0.010120244040518289,0.03589627574637839,0.1987884579644749,0.0
0.010125072017320635,0.03579783866379722,0.19877156004566668,0.0
0.010147602575731584,0.035791133140460625,0.19872596248697785,0.0
0.010163964052672869,0.035850946408623026,0.19871764763804048,0.0
0.010135800854659182,0.03583002517581286,0.19871147855657081,0.0
0.010131509319723763,0.035863284571562355,0.19868412002135752,0.0
0.01014438392453002,0.035844240885286434,0.19870316370763344,0.0
0.010144115703596556,0.0358201010012747,0.19870370014950037,0.0
0.010137410180259964,0.03577396700071895,0.19869002088189372,0.0
0.010150553005999685,0.03581795523380699,0.198713892544972,0.0
0.010180325529614153,0.035791937803261016,0.1986886797772264,0.0
0.010198028111222756,0.035798375105664144,0.19869511707962953,0.0
0.010170401355075997,0.0358386082456837,0.19872032984737512,0.0
0.0101341915290584,0.03582492897807705,0.19870101794016573,0.0
0.010125876680121026,0.03583163450141364,0.1987071870216354,0.0
0.010134459749991864,0.03581929633847431,0.19871255144030467,0.0
0.010142506377995774,0.03572461434896163,0.19868304713762366,0.0
0.010148943680398903,0.035738561837501744,0.19872381671951014,0.0
0.010167987366674824,0.03594026397946643,0.1988120614066197,0.0
0.010176302215612198,0.035877768501969394,0.1988201080346236,0.0
0.010182471297081863,0.03584048579221794,0.19878523931327333,0.0
0.010182739518015326,0.03583324382701442,0.19875305280125768,0.0
0.010202051425224712,0.035866235001830456,0.19876592740606394,0.0
0.010226459530169906,0.035766993256448894,0.19882252202302478,0.0
0.010233433274439964,0.03578576872179135,0.19881769404622243,0.0
0.010206879402027058,0.03589493464171107,0.1988002596855473,0.0
0.010206074739226667,0.035814468361671965,0.19879999146461383,0.0
0.010222436216167951,0.0358082992802023,0.1987927494994103,0.0
0.010205806518293203,0.03577986786125515,0.19877531513873517,0.0
0.010152162331600467,0.035766993256448894,0.19871952518457472,0.0
0.010169328471342142,0.03582627008274437,0.1987278400335121,0.0
0.010206879402027058,0.035790328477660234,0.19878148422020483,0.0
0.01022672775110337,0.035812322594204256,0.19876941427819897,0.0
0.010217608239365605,0.035741512267769844,0.19869914039363148,0.0
0.010198028111222756,0.035756800860977274,0.19865193350934188,0.0
0.010208220506694376,0.03567633458093817,0.19862403853226165,0.0
0.010223509099901806,0.03564414806892253,0.19864120467200333,0.0
0.010220290448700242,0.03577423522165241,0.19862028343919316,0.0
0.010195077680954656,0.0356798214530732,0.19855751974076266,0.0
0.010208756948561304,0.03566828795293426,0.19855912906636344,0.0
0.010220022227766778,0.03564414806892253,0.19858702404344367,0.0
0.01020044209962393,0.03559774584743331,0.198628866509064,0.0
0.010166378041074042,0.03557709283555661,0.1985964117761149,0.0
0.010154844540935104,0.03556207246328264,0.19856556636876657,0.0
0.010188640378551527,0.03558165259142549,0.198562347717565,0.0
0.010179520866813762,0.035551343625944094,0.1984966335888664,0.0
0.010148407238531975,0.03541401450801068,0.19847437125138892,0.0
0.010156185645602422,0.03550708717192259,0.19851540905420886,0.0
0.010192127250686555,0.03558889455662901,0.1984966335888664,0.0
0.010185689948283427,0.035536055032736664,0.19846391063498384,0.0
0.0101881039366846,0.03552022999766231,0.198473834809522,0.0
0.010177375099346053,0.035485897718178956,0.19849636536793294,0.0
0.010160477180537841,0.03545049255496175,0.19849019628646328,0.0
0.010181130192414544,0.03557736105649007,0.19849582892606601,0.0
0.010199369215890075,0.03560954756850571,0.19848670941432825,0.0
0.010191322587886164,0.03556287712608303,0.19846686106525194,0.0
0.010214121367230577,0.03557360596342158,0.19844111185563942,0.0
0.010216803576565214,0.03553551859086974,0.19839310030854942,0.0
0.010204197192692421,0.0355387372420713,0.19835742692439876,0.0
0.010196687006555438,0.035542760556073257,0.1983327505985201,0.0
0.010211975599762868,0.03554973430034331,0.1983260450751835,0.0
0.010226995972036834,0.035592917870630965,0.1983365056915886,0.0
0.010199369215890075,0.035543296997940184,0.19832872728451814,0.0
0.010175497552811807,0.03554356521887365,0.19831156114477647,0.0
0.010193468355353874,0.035523716869797335,0.19828795770263166,0.0
0.010186494611083818,0.03538746063559778,0.1982329724112716,0.0
0.010192127250686555,0.03536063854225141,0.1982729373303577,0.0
0.010181934855214935,0.035289559994883535,0.1982270715507354,0.0
0.010190517925085773,0.03535795633291677,0.19825389364408177,0.0
0.010224313762702197,0.03534159485597549,0.19827722886529311,0.0
0.01020634296016013,0.03526005569220253,0.1982093689691268,0.0
0.010201514983357784,0.03539121572866627,0.19820534565512485,0.0
0.010222436216167951,0.03533220712330426,0.1982536254231483,0.0
0.01023531082097421,0.03527749005287767,0.1982316313066043,0.0
0.010233701495373428,0.03523967090125929,0.1981718180384419,0.0
0.010224313762702197,0.03521982255218298,0.19811844207268262,0.0
0.01022163155336756,0.03519031824950197,0.19808947421186854,0.0
0.010248721867647394,0.03521848144751566,0.19811307765401334,0.0
0.01025354984444974,0.0351761025400284,0.19810690857254368,0.0
0.010243625669911584,0.035145257132680074,0.19805916524638714,0.0
0.01022458198363566,0.035150353330415884,0.19805245972305055,0.0
0.010243089228044656,0.035211507703245604,0.19811951495641647,0.0
0.010242284565244265,0.03523162427325538,0.1980985937236063,0.0
0.010202587867091639,0.035239939122192754,0.198060238130121,0.0
0.010192395471620019,0.03527400318074264,0.19800525283876094,0.0
0.010202587867091639,0.03523698869192465,0.19802241897850262,0.0
0.010209025169494767,0.03522304120338454,0.19809886194453977,0.0
0.010210098053228622,0.03526863876207337,0.19805299616491748,0.0
0.010179520866813762,0.03527453962260957,0.19801115369929714,0.0
0.010190786146019237,0.035295460855419736,0.19798513626875117,0.0
0.01019829633215622,0.035312895216094875,0.19797735786168072,0.0
0.010222972658034879,0.03534105841410856,0.19806452966505642,0.0
0.010206074739226667,0.03530109349502247,0.19811012722374524,0.0
0.010199905657757002,0.03536197964691873,0.19808410979319926,0.0
0.010212243820696331,0.03547543710177387,0.19808947421186854,0.0
0.01023101928603879,0.03571871348842543,0.19819139816658474,0.0
0.010205806518293203,0.03572380968616124,0.19815384723589982,0.0
0.0101881039366846,0.03568143077867398,0.19814231373576088,0.0
0.01023236039070611,0.03582519719901051,0.1982160744924634,0.0
0.010235579041907673,0.03573614784910057,0.1981806693292462,0.0
0.010198564553089684,0.03577021190765046,0.1982359228415397,0.0
0.010227264192970298,0.035839949350351015,0.19828205684209546,0.0
0.01022082689056717,0.035816614129139675,0.1983193395518469,0.0
0.010210098053228622,0.03583941290848409,0.19835957269186646,0.0
0.010210902716029013,0.035871331199566266,0.19835018495919524,0.0
0.010218144681232532,0.03588232825783828,0.19837003330827155,0.0
0.01023101928603879,0.03587454985076783,0.19839873294815216,0.0
0.010230214623238398,0.035836998920082914,0.19841884951816194,0.0
0.010242821007111193,0.035822514989675876,0.1984191177390954,0.0
0.010224850204569124,0.035826806524611295,0.19840329270402104,0.0
0.010229409960438007,0.03585470150169152,0.19841053466922456,0.0
0.010252476960715885,0.03583592603634906,0.19838505368054551,0.0
0.0102361154837746,0.03583136628048018,0.19832363108678233,0.0
0.010216803576565214,0.0357307834304313,0.19831290224944378,0.0
0.010234774379107282,0.03568491765080901,0.19835876802906607,0.0
0.010240138797776556,0.035804275966200345,0.19836681465706998,0.0
0.01022887351857108,0.03577235767511817,0.1983437476567921,0.0
0.01022082689056717,0.03575224110510839,0.19831880310997999,0.0
0.010212243820696331,0.03571844526749197,0.1983247039705162,0.0
0.010244162111778511,0.03561893530117694,0.19833623747065512,0.0
0.010262401135254041,0.035524521532597726,0.19831746200531267,0.0
0.010250867635115103,0.0356229586151789,0.19828715303983127,0.0
0.010265619786455606,0.035689209185744426,0.19828125217929507,0.0
0.010281444821529963,0.03560042805676795,0.1982965407725025,0.0
0.010271520646991807,0.03556099957954879,0.19827910641182736,0.0
0.010242284565244265,0.03555161184687756,0.19823833682994088,0.0
0.010247112542046612,0.03552130288139616,0.19818817951538317,0.0
0.010280640158729572,0.03551111048592454,0.19818978884098395,0.0
0.0102841270308646,0.03550064986951946,0.19817584135244384,0.0
0.010291368996068119,0.03545290654336292,0.19812997557282155,0.0
0.010288418565800019,0.0353614432050518,0.19806345678132256,0.0
0.010286004577398845,0.035301898157822864,0.19807955003733038,0.0
0.010286004577398845,0.0354094547521418,0.19807391739772764,0.0
0.010273666414459516,0.03534481350717705,0.1980454859787805,0.0
0.010291368996068119,0.03541616027547839,0.19810020304920709,0.0
0.010289759670467337,0.035380755112261186,0.1980631885603891,0.0
0.010300756728739348,0.03530618969275828,0.19802054143196837,0.0
0.01027903083312879,0.035273466738875714,0.19800230240849284,0.0
0.010277957949394935,0.03531825963476415,0.19796823834994295,0.0
0.010285199914598454,0.03523537936632387,0.1979183492563187,0.0
0.010286004577398845,0.035176638981895325,0.1979819176175496,0.0
0.010258914263119014,0.03511494816719868,0.19797360276861223,0.0
0.010235579041907673,0.0351997059821732,0.19793471073326,0.0
0.010235042600040746,0.03517851652842957,0.197953217977669,0.0
0.010244162111778511,0.03509831846932393,0.19795965528007212,0.0
0.01023531082097421,0.03507283748064488,0.19795402264046938,0.0
0.010236920146574992,0.035033140782492256,0.19793041919832458,0.0
0.010235579041907673,0.034992102979672306,0.19791378950044983,0.0
0.010256232053784377,0.035147402900147784,0.19794999932646742,0.0
0.010253281623516276,0.0350741785853122,0.19791513060511715,0.0
0.010239065914042701,0.03503394544529265,0.19789286826763966,0.0
0.01023826125124231,0.03504521072449812,0.19793256496579228,0.0
0.010269374879524097,0.035061572201439406,0.19794919466366703,0.0
0.010281444821529963,0.03503904164302846,0.19792478655872184,0.0
0.010275275740060298,0.03502884924755684,0.1979035971049782,0.0
0.010276348623794153,0.035068277724776,0.1979022560003109,0.0
0.010264278681788287,0.03505218446876818,0.19791754459351832,0.0
0.010274471077259907,0.035080347666781864,0.1979406115937962,0.0
0.010265619786455606,0.035068009503842534,0.1979035971049782,0.0
0.010255159170050522,0.03507739723651376,0.19791969036098603,0.0
0.010264546902721751,0.03510314644612628,0.19793471073326,0.0
0.010286004577398845,0.03506130398050594,0.19795590018700363,0.0
0.010283590588997672,0.03508088410864879,0.19795134043113474,0.0
0.01027688506566108,0.035199974203106665,0.19795724129167094,0.0
0.010275812181927226,0.03517422499349415,0.19799023246648698,0.0
0.010280103716862644,0.03515598597001862,0.1979966697688901,0.0
0.01026588800738907,0.03506398618984058,0.1979929146758216,0.0
0.010261060030586723,0.03522089543591683,0.19798379516408385,0.0
0.010253818065383204,0.03515732707468594,0.1980379757926435,0.0
0.01027098420512488,0.03511441172533175,0.1980623838975887,0.0
0.010288150344866555,0.03510341466705974,0.1980387804554439,0.0
0.01024550321644583,0.03505808532930438,0.19799506044328932,0.0
0.010248185425780466,0.035076056131846445,0.1979878184780858,0.0
0.010237188367508455,0.03508276165518304,0.19793149208205843,0.0
0.010235042600040746,0.03510985196946287,0.19796877479180988,0.0
0.01024121168151041,0.035127018109204544,0.19796287393127368,0.0
0.010250331193248176,0.03518629493550002,0.1979945240014224,0.0
0.010233701495373428,0.035099391353057785,0.19798808669901927,0.0
0.010259987146852868,0.035097245585590076,0.19806962586279223,0.0
0.010287882123933091,0.03517127456322605,0.19809698439800552,0.0
0.010291368996068119,0.035161350388687895,0.19807901359546345,0.0
0.010298610961271638,0.03516698302829063,0.19810932256094485,0.0
0.01028198126339689,0.03504816115476622,0.19811307765401334,0.0
0.010296465193803929,0.035118435039333706,0.1980926928630701,0.0
0.010287613902999627,0.035234306482590017,0.1980653343278568,0.0
0.010287882123933091,0.0351849538308327,0.19807659960706228,0.0
0.01031845931034795,0.035172883888826834,0.19809215642120317,0.0
0.01031336311261214,0.03516751947015756,0.19806479788598988,0.0
0.010282517705263818,0.035192732237903146,0.19803636646704273,0.0
0.010280371937796108,0.0351369422837427,0.19804789996718167,0.0
0.01026883843765717,0.0351546448653513,0.19805111861838323,0.0
0.010280371937796108,0.0352624696806037,0.19811656452614837,0.0
0.010269374879524097,0.0351908546913689,0.19808276868853195,0.0
0.010283322368064209,0.035161350388687895,0.19805701947891943,0.0
0.010306121147408621,0.03518549027269963,0.19805111861838323,0.0
0.010293514763535828,0.03520748438924365,0.19802644229250457,0.0
0.010269106658590633,0.035211507703245604,0.19798138117568267,0.0
0.010279299054062253,0.03527185741327493,0.1979427573612639,0.0
0.010311485566077895,0.035236452250057726,0.19797145700114452,0.0
0.010312022007944822,0.03521499457538063,0.19801410412956524,0.0
0.010276616844727617,0.035211507703245604,0.1979870138152854,0.0
0.010252745181649349,0.03525737348286789,0.19797950362914843,0.0
0.01026964310045756,0.03522089543591683,0.19804494953691357,0.0
0.010308803356743258,0.03524235311059393,0.19806452966505642,0.0
0.010311485566077895,0.03526810232020644,0.19805326438585094,0.0
0.010284663472731527,0.03520024242404013,0.19806292033945563,0.0
0.010280640158729572,0.03522223654058415,0.1980720398511934,0.0
0.0102841270308646,0.03533354822797158,0.19805621481611904,0.0
0.010261864693387114,0.035321746506899176,0.19809966660734016,0.0
0.010259450704985941,0.035261933238736776,0.19808410979319926,0.0
0.01026374223992136,0.035281513366879624,0.1980846462350662,0.0
0.010273666414459516,0.03537807290292655,0.19808196402573156,0.0
0.010283590588997672,0.035304043925290574,0.19804736352531474,0.0
0.010282249484330354,0.035346422832777835,0.19802536940877072,0.0
0.01028922322860041,0.035339180867574316,0.19802295542036955,0.0
0.010301829612473203,0.0353584927747837,0.19803234315304077,0.0
0.010283322368064209,0.03537834112386001,0.19801651811796642,0.0
0.01027473929819337,0.03540167634507135,0.19797574853607994,0.0
0.01027608040286069,0.0354700726831046,0.19796689724527564,0.0
0.010262669356187505,0.03544378703162516,0.19794758533806625,0.0
0.010261864693387114,0.03537646357732577,0.19801705455983334,0.0
0.01027098420512488,0.035415623833611465,0.19804924107184899,0.0
0.010262937577120969,0.03544539635722594,0.19800015664102513,0.0
0.010262401135254041,0.03547141378777192,0.19804924107184899,0.0
0.01025569561191745,0.03546014850856644,0.19806479788598988,0.0
0.010254086286316667,0.03548321550884432,0.19805594659518558,0.0
0.010242016344310802,0.03552613085819851,0.19803153849024038,0.0
0.010258914263119014,0.03558004326582471,0.1980218825366357,0.0
0.010261328251520187,0.03544325058975823,0.19801946854823452,0.0
0.010234774379107282,0.03542688911281694,0.1980269787343715,0.0
0.01023236039070611,0.03558808989382862,0.19803985333917776,0.0
0.010217608239365605,0.035460416729499906,0.19802536940877072,0.0
0.010244966774578902,0.03555027074221024,0.19801544523423256,0.0
0.010231823948839182,0.035593722533431356,0.1979781625244811,0.0
0.010212512041629795,0.03554302877700672,0.19799211001302122,0.0
0.01021868112309946,0.035595063638098674,0.19800820326902904,0.0
0.010184348843616109,0.03550225919512024,0.19797869896634804,0.0
0.010176838657479126,0.03549877232298521,0.1980728445139938,0.0
0.010194004797220801,0.03555161184687756,0.19809001065373547,0.0
0.010189981483218846,0.03553766435833745,0.19804199910664547,0.0
0.010207415843893985,0.035514865578993034,0.19804146266477854,0.0
0.01021948578589985,0.03549340790431594,0.19799640154795664,0.0
0.01020124676242432,0.03547543710177387,0.19803234315304077,0.0
0.01021868112309946,0.03551727956739421,0.19803046560650653,0.0
0.010240943460576947,0.03552318042793041,0.1980210778738353,0.0
0.010217340018432141,0.035447810345627113,0.1980151770132991,0.0
0.010203660750825494,0.035502527416053704,0.1980395851182443,0.0
0.010204197192692421,0.0355180842301946,0.19803904867637737,0.0
0.01021358492536365,0.03543520396175432,0.19805192328118362,0.0
0.010208756948561304,0.035471950229638845,0.1980669436534576,0.0
0.01019534590188812,0.0355239850907308,0.19807472206052804,0.0
0.010207415843893985,0.035499040543918677,0.19808276868853195,0.0
0.010247112542046612,0.035526667300065436,0.19812273360761803,0.0
0.010260255367786332,0.0354671222528365,0.19810851789814446,0.0
0.01022672775110337,0.03539550726360169,0.19804897285091552,0.0
0.010195077680954656,0.03530618969275828,0.19803931689731083,0.0
0.010220290448700242,0.035390142844932415,0.19809001065373547,0.0
0.01025354984444974,0.03543144886868583,0.19815438367776675,0.0
0.010218949344032923,0.03537860934479348,0.19812702514255345,0.0
0.010201783204291248,0.03534400884437666,0.19811844207268262,0.0
0.010234774379107282,0.03536573473998722,0.19818335153858083,0.0
0.010244430332711975,0.03533435289077197,0.19821339228312876,0.0
0.010240138797776556,0.03532469693716728,0.19816323496857105,0.0
0.010231555727905718,0.03532952491396962,0.19811280943307988,0.0
0.010238797693109238,0.035336230437306215,0.1981761095733773,0.0
0.01022458198363566,0.035315040983562584,0.19819273927125206,0.0
0.010203928971758957,0.03520909371484443,0.19813292600308965,0.0
0.01021948578589985,0.03531691853009683,0.19815116502656518,0.0
0.010232628611639573,0.03544807856656058,0.19814928748003094,0.0
0.010246576100179684,0.03536493007718683,0.19814982392189787,0.0
0.010233701495373428,0.03537136737958996,0.19817208625937535,0.0
0.0101851535064165,0.03535527412358214,0.19815062858469826,0.0
0.010187567494817673,0.035338376204773925,0.19818469264324814,0.0
0.010234506158173819,0.035389338182132024,0.19821795203899764,0.0
0.01022887351857108,0.03534293596064281,0.19822546222513462,0.0
0.010221363332434097,0.03529707018102052,0.19820212700392328,0.0
0.010233433274439964,0.03521982255218298,0.19816538073603876,0.0
0.01026159647245365,0.03535634700731599,0.1981806693292462,0.0
0.01027903083312879,0.03537378136799113,0.19818925239911703,0.0
0.010255159170050522,0.03530887190209292,0.19815116502656518,0.0
0.010238529472175774,0.035291705762351244,0.19813507177055736,0.0
0.010253818065383204,0.03533435289077197,0.19819059350378435,0.0
0.010260523588719796,0.03525925102940214,0.1981605527592364,0.0
0.010252476960715885,0.03520775261017711,0.1981546518987002,0.0
0.010262401135254041,0.03541320984521029,0.1981975672480544,0.0
0.010269106658590633,0.03531235877422795,0.1981584069917687,0.0
0.01027983549592918,0.0352986795066213,0.198167258282573,0.0
0.010270447763257952,0.035285268459948116,0.1981466052706963,0.0
0.010240675239643483,0.03525442305259979,0.1981533107940329,0.0
0.010243893890845047,0.03528285447154694,0.19821205117846144,0.0
0.01025354984444974,0.035289828215817,0.1982227800158,0.0
0.010256232053784377,0.03529411975075242,0.19819864013178826,0.0
0.01022163155336756,0.03530216637875633,0.1981680629453734,0.0
0.010241479902443874,0.03538451020532968,0.1981680629453734,0.0
0.010259450704985941,0.03537968222852733,0.19816994049190764,0.0
0.010257841379385159,0.03540811364747448,0.19816994049190764,0.0
0.01024335744897812,0.03536653940278761,0.19814204551482742,0.0
0.010249258309514321,0.03539899413573672,0.19814928748003094,0.0
0.010263205798054433,0.03541320984521029,0.19816457607323837,0.0
0.010260255367786332,0.03536788050745493,0.19815492011963368,0.0
0.010247917204847003,0.03535205547238057,0.19811656452614837,0.0
0.010246844321113148,0.03550655073005566,0.19807525850239496,0.0
0.010253013402582813,0.03543225353148622,0.19807901359546345,0.0
0.010242821007111193,0.03537539069359191,0.19806667543252413,0.0
0.01025354984444974,0.035269175203940295,0.19807391739772764,0.0
0.010250867635115103,0.035212312366045995,0.198108249677211,0.0
0.010283054147130745,0.03537351314705767,0.19813829042175893,0.0
0.010300488507805884,0.03539792125200286,0.19814714171256323,0.0
0.010286541019265773,0.03535044614677979,0.19809537507240474,0.0
0.01026374223992136,0.035288218890216216,0.19806748009532452,0.0
0.010264278681788287,0.03527239385514186,0.19809725261893898,0.0
0.010290564333267728,0.03532362405343342,0.19813587643335775,0.0
0.010296465193803929,0.03532952491396962,0.19814767815443016,0.0
0.010293246542602365,0.035326842704634986,0.19811280943307988,0.0
0.010291905437935046,0.035354469460781746,0.19811280943307988,0.0
0.010295660531003538,0.03534320418157627,0.1981133458749468,0.0
0.010303975379940912,0.03532335583249996,0.19809832550267284,0.0
0.010297806298471247,0.03532362405343342,0.19806935764185876,0.0
0.010321141519682588,0.035356615228249455,0.1980741856186611,0.0
0.010330261031420353,0.035332475344237724,0.19807928181639692,0.0
0.010319532194081805,0.035320137181298394,0.19807150340932647,0.0
0.010295928751937002,0.035323087611566495,0.19801946854823452,0.0
0.010273666414459516,0.0353555423445156,0.19800820326902904,0.0
0.01027983549592918,0.03536788050745493,0.19802590585063765,0.0
0.010283054147130745,0.03535312835611443,0.1980041799550271,0.0
0.010261864693387114,0.035315040983562584,0.1979620692684733,0.0
0.010254086286316667,0.03532791558836884,0.19796153282660636,0.0
0.010267229112056388,0.03539979879853711,0.1979427573612639,0.0
0.010272593530725661,0.03544968789216136,0.19791352127951636,0.0
0.010302902496207057,0.0354877752647132,0.19794034337286273,0.0
0.010293246542602365,0.035458807403899124,0.19785075758108586,0.0
0.01031336311261214,0.035407577205607554,0.19788830851177078,0.0
0.010315777101013314,0.03541213696147644,0.19794383024499776,0.0
0.010288150344866555,0.035357419891049846,0.1978955504769743,0.0
0.010292441879801974,0.03539282505426705,0.19787838433723262,0.0
0.010311485566077895,0.03542769377561733,0.19785826776722285,0.0
0.01031470421727946,0.03541696493827878,0.19783600542974536,0.0
0.010306121147408621,0.03544620102002633,0.1978526351276201,0.0
0.010303975379940912,0.03544807856656058,0.1978475389298843,0.0
0.010318727531281414,0.035433326415220075,0.19783734653441268,0.0
0.01031041268234404,0.035419378926679956,0.1978408334065477,0.0
0.010298342740338175,0.035406236100940236,0.19782259438307218,0.0
0.01028493169366499,0.035395239042668225,0.19778638455705458,0.0
0.010280640158729572,0.03540221278693828,0.19777350995224832,0.0
0.010293782984469292,0.03540194456600482,0.19776278111490977,0.0
0.010287882123933091,0.035396580147335543,0.1977405187774323,0.0
0.010265619786455606,0.03541320984521029,0.1977507111729039,0.0
0.010257304937518232,0.03544110482229052,0.19777029130104676,0.0
0.01025059941418164,0.035435472182687784,0.19778933498732268,0.0
0.010252745181649349,0.03543815439202242,0.19779764983626005,0.0
0.010255159170050522,0.035433862857087,0.19777377817318179,0.0
0.010242552786177729,0.03541803782201264,0.19776009890557514,0.0
0.010284663472731527,0.035438422612955885,0.19779094431292346,0.0
0.010287345682066164,0.03537834112386001,0.19777350995224832,0.0
0.010281444821529963,0.035366002960920684,0.1977574166962405,0.0
0.010270179542324488,0.03536332075158605,0.19775419804503894,0.0
0.010285468135531918,0.03543305819428661,0.19774588319610156,0.0
0.01029726985660432,0.03549179857871516,0.1977662679870448,0.0
0.010306657589275549,0.03550950116032376,0.19782795880174145,0.0
0.010301024949672812,0.03557306952155465,0.19776948663824637,0.0
0.01032355550808376,0.03544968789216136,0.1977936265222581,0.0
0.010336430112890017,0.035495285450850185,0.1978437838368158,0.0
0.010312826670745213,0.03563556499905169,0.19781883929000368,0.0
0.010306121147408621,0.03560793824290493,0.19778316590585301,0.0
0.010323287287150297,0.03561678953370923,0.19779094431292346,0.0
0.010344476740893928,0.035595063638098674,0.1977826294639861,0.0
0.010327042380218789,0.03560793824290493,0.1977523204985047,0.0
0.010302634275273594,0.03560767002197147,0.1977086004863501,0.0
0.010297001635670856,0.03560337848703605,0.19770511361421508,0.0
0.010333479682621917,0.0355926496496975,0.19770082207927966,0.0
0.010329456368619962,0.035578433940223926,0.19769948097461235,0.0
0.0102900278914008,0.035625640824513534,0.19772013398648905,0.0
0.010273129972592589,0.035552952951544876,0.19770323606768084,0.0
0.010264278681788287,0.035476241764574264,0.1976997491955458,0.0
0.010288686786733482,0.035621349289578115,0.1977145013468863,0.0
0.010285199914598454,0.035595063638098674,0.19773408147502916,0.0
0.010279299054062253,0.03561437554530806,0.19771718355622095,0.0
0.010250331193248176,0.03558835811476208,0.19766783090446363,0.0
0.010242284565244265,0.035590772103163255,0.19767829152086872,0.0
0.010235847262841137,0.0355956000799656,0.1976503965437885,0.0
0.010226459530169906,0.03568062611587359,0.1976799008464695,0.0
0.010239602355909629,0.035679553232139734,0.19772254797489022,0.0
0.010275812181927226,0.03572246858149392,0.19771932932368866,0.0
0.010261060030586723,0.035713885511623085,0.19765978427645972,0.0
0.010244430332711975,0.03567177482506929,0.19765361519499006,0.0
0.01023826125124231,0.035799984431264927,0.19772147509115637,0.0
0.01024550321644583,0.03579462001259565,0.1977995273827943,0.0
0.010226995972036834,0.03574419447710448,0.19776170823117592,0.0
0.010225923088302979,0.035705034220818783,0.1977174517771544,0.0
0.010220290448700242,0.035637442545585936,0.19773622724249687,0.0
0.010250331193248176,0.035672311266936214,0.19776170823117592,0.0
0.010280640158729572,0.03577262589605163,0.19778960320825614,0.0
0.010267229112056388,0.035765652151781575,0.19777163240571408,0.0
0.010280371937796108,0.035806421733668055,0.1977780697081172,0.0
0.010277421507528008,0.03579488823352912,0.19779389474319156,0.0
0.010259182484052477,0.03575197288417493,0.19776948663824637,0.0
0.01027098420512488,0.03578871915205945,0.19777377817318179,0.0
0.01026964310045756,0.03580186197779917,0.1977397141146319,0.0
0.010258914263119014,0.03581259081513772,0.1977389094518315,0.0
0.010258109600318623,0.0358171505710066,0.19773515435876302,0.0
0.010235847262841137,0.035826001861810904,0.19770886870728357,0.0
0.010240943460576947,0.03580749461740191,0.19766300292766129,0.0
0.010247380762980075,0.035721932139626995,0.19765897961365933,0.0
0.010269106658590633,0.03575385043070917,0.19776760909171212,0.0
0.01026079180965326,0.03576162883777962,0.19774454209143424,0.0
0.010252476960715885,0.035753313988842246,0.19768419238140492,0.0
0.01024550321644583,0.03569028206947828,0.19763162107844603,0.0
0.010244430332711975,0.035699401581216046,0.19760131211296464,0.0
0.010228337076704152,0.03580910394300269,0.197587632845358,0.0
0.01023745658844192,0.03573105165136476,0.19755705565894313,0.0
0.010249794751381248,0.0356583637783961,0.1975455221588042,0.0
0.010267765553923315,0.03559747762649985,0.1975173589607905,0.0
0.010296465193803929,0.03576538393084811,0.19750207036758308,0.0
0.01026964310045756,0.03572005459309275,0.19742562740154593,0.0
0.01028198126339689,0.03565004892945873,0.19748731821624257,0.0
0.010311217345144431,0.03567552991813778,0.19755383700774157,0.0
0.010306121147408621,0.035665069301732695,0.19751467675145587,0.0
0.010295928751937002,0.03565031715039219,0.19748651355344218,0.0
0.010292710100735437,0.03567633458093817,0.19750609368158503,0.0
0.010307194031142476,0.0356945736044137,0.19754230350760263,0.0
0.01030236605434013,0.0357063753254861,0.19753103822839715,0.0
0.010295392310070074,0.03569698759281487,0.19750663012345196,0.0
0.010299683845005493,0.03568304010427476,0.1975063619025185,0.0
0.01032570127555147,0.035699938023082974,0.1975366708679999,0.0
0.010333479682621917,0.035717640604691576,0.1975122627630547,0.0
0.010330261031420353,0.03568438120894208,0.19753774375173375,0.0
0.010324360170884152,0.03574687668643912,0.19756778449628168,0.0
0.010313899554479068,0.035761897058713084,0.19754444927507034,0.0
0.010321409740616051,0.03566453285986577,0.1975173589607905,0.0
0.010298610961271638,0.03565514512719454,0.19747793048357135,0.0
0.010296733414737393,0.03579757044286375,0.19746398299503123,0.0
0.010303975379940912,0.035798375105664144,0.19742777316901364,0.0
0.010299952065938957,0.0357152266162904,0.19748141735570637,0.0
0.010292441879801974,0.03579247424512794,0.19749348729771224,0.0
0.010274471077259907,0.03574875423297336,0.19747283428583554,0.0
0.010269106658590633,0.03569323249974638,0.19752808779812905,0.0
0.010284663472731527,0.03572246858149392,0.19748168557663984,0.0
0.010276348623794153,0.0357063753254861,0.19747551649517017,0.0
0.010283322368064209,0.03575009533764068,0.19748597711157526,0.0
0.01029726985660432,0.03576672503551543,0.19747068851836783,0.0
0.01032355550808376,0.035746608465505654,0.19748222201850676,0.0
0.010332138577954599,0.035745267360838336,0.19748624533250872,0.0
0.010313899554479068,0.035761360616846156,0.197484099565041,0.0
0.010298610961271638,0.035756800860977274,0.19748651355344218,0.0
0.010316849984747169,0.03573990294216906,0.1975063619025185,0.0
0.010317386426614096,0.03572595545362895,0.19750072926291576,0.0
0.01030960801954365,0.035737220732834425,0.19746773808809973,0.0
0.010301293170606275,0.03571844526749197,0.1974242862968786,0.0
0.01030960801954365,0.035606865359171076,0.19745513170422693,0.0
0.010331602136087671,0.03572515079082856,0.197510116995587,0.0
0.010330261031420353,0.035638783650253254,0.19746156900663006,0.0
0.010315240659146387,0.03569832869748219,0.1974532541576927,0.0
0.010301829612473203,0.035788182710192525,0.19749482840237956,0.0
0.010294051205402756,0.03568008967400666,0.1975042161350508,0.0
0.010303170717140521,0.03564441628985599,0.1975114581002543,0.0
0.010293782984469292,0.03567472525533739,0.19749482840237956,0.0
0.01030022028687242,0.03570771643015342,0.19750609368158503,0.0
0.010289759670467337,0.035654072243460684,0.19749321907677878,0.0
0.010302634275273594,0.035735074965366716,0.19748946398371028,0.0
0.0102870774611327,0.03571844526749197,0.1974819537975733,0.0
0.010309876240477113,0.035704497778951856,0.19756671161254782,0.0
0.010314972438212923,0.03569591470908102,0.197532111112131,0.0
0.010302634275273594,0.03572461434896163,0.19745405882049308,0.0
0.010295660531003538,0.03572300502336085,0.19739531843606453,0.0
0.010292441879801974,0.03571254440695577,0.1973977324244657,0.0
0.010303975379940912,0.03562537260358007,0.19739960997099995,0.0
0.010312826670745213,0.035713080848822694,0.19739317266859682,0.0
0.010307194031142476,0.03574097582590292,0.197414093901407,0.0
0.01031255844981175,0.035716835941891185,0.1974154350060743,0.0
0.010326505938351861,0.03575385043070917,0.19738646714526023,0.0
0.010350645822363592,0.03569806047654873,0.1973454293424403,0.0
0.010364861531837168,0.03562993235944895,0.1973046597605538,0.0
0.01035708312476672,0.03556636399821806,0.19726174441119962,0.0
0.010380954787844992,0.03571334906975616,0.19728588429521135,0.0
0.010380686566911528,0.03575063177950761,0.19727837410907437,0.0
0.010369957729572981,0.03560954756850571,0.19725128379479454,0.0
0.010347158950228565,0.03557655639368968,0.19728963938827984,0.0
0.01032275084528337,0.03558299369609281,0.19730278221401956,0.0
0.010317386426614096,0.0355690462075527,0.19727381435320548,0.0
0.010315240659146387,0.0356044513707699,0.19725637999253035,0.0
0.01032355550808376,0.03564119763865443,0.19723733630625442,0.0
0.010313094891678677,0.03562269039424543,0.1972241934805147,0.0
0.010332406798888062,0.03559989161490102,0.19722902145731705,0.0
0.010322482624349906,0.03558004326582471,0.1971954938406341,0.0
0.010280908379663035,0.0355660957772846,0.1971592840146165,0.0
0.01027983549592918,0.03551754778832767,0.197137021677139,0.0
0.010311753787011359,0.035422865798814984,0.19717859592182588,0.0
0.010345549624627783,0.03556636399821806,0.19724296894585716,0.0
0.010347427171162028,0.03558031148675817,0.1972043451314384,0.0
0.010346890729295101,0.03557414240528851,0.19716116156115074,0.0
0.010350377601430129,0.035538200800204374,0.1971230741885989,0.0
0.010335625450089626,0.035547052091008675,0.19713299836313705,0.0
0.01034313563622661,0.035548393195675994,0.19717940058462627,0.0
0.010341258089692364,0.03555483049807912,0.1971807416892936,0.0
0.010338307659424263,0.03551888889299499,0.19721721973624465,0.0
0.01031980041501527,0.0354730231133727,0.1971997853755695,0.0
0.010316313542880241,0.035654876906261075,0.19717886414275934,0.0
0.010310144461410577,0.035590772103163255,0.1971547242587476,0.0
0.010316849984747169,0.03559238142876404,0.19720085825930336,0.0
0.010302634275273594,0.035587017010094764,0.19722526636424856,0.0
0.01029217365886851,0.035596672963699456,0.19719039764289828,0.0
0.010276348623794153,0.03550950116032376,0.19716277088675152,0.0
0.010318995752214878,0.03553739613740398,0.19723063078291783,0.0
0.010346890729295101,0.03568786808107711,0.1972751554578728,0.0
0.010339380543158118,0.03564924426665834,0.1972545024459961,0.0
0.010338307659424263,0.035643879847989064,0.1972427007249237,0.0
0.010340185205958509,0.03566909261573465,0.1972654995042681,0.0
0.010346890729295101,0.035649780708525265,0.1972789105509413,0.0
0.010365129752770631,0.035684649429875544,0.19727971521374169,0.0
0.010350377601430129,0.03574794957017297,0.1972751554578728,0.0
0.0103409898687589,0.03572246858149392,0.19727408257413895,0.0
0.01033884410129119,0.035729978767630906,0.1972153421897104,0.0
0.01031550888007985,0.03561222977784035,0.19722526636424856,0.0
0.010317386426614096,0.035598818731167166,0.19731002417922308,0.0
0.010335089008222699,0.035654072243460684,0.19732638565616437,0.0
0.010335625450089626,0.03557870216115739,0.1973269220980313,0.0
0.010336161891956554,0.035534713928069346,0.19734194247030526,0.0
0.010327578822085716,0.03567579813907124,0.19730895129548923,0.0
0.010329456368619962,0.035635296778118226,0.19729768601628375,0.0
0.010354937357299011,0.03554517454447443,0.19731029240015655,0.0
0.01037934546224421,0.03560203738236873,0.1973076101908219,0.0
0.010378809020377282,0.03569832869748219,0.197299563562818,0.0
0.010378004357576891,0.035648976045724874,0.19729822245815068,0.0
0.010383100555312701,0.03561678953370923,0.19730197755121917,0.0
0.010401071357854768,0.03561571664997538,0.1973379191563033,0.0
0.010391415404250075,0.03560659713823761,0.19734140602843833,0.0
0.010375858590109182,0.03559318609156443,0.19732289878402934,0.0
0.010383636997179629,0.03562510438264661,0.19733630983070252,0.0
0.010376931473843037,0.03557628817275622,0.1973416742493718,0.0
0.01036432508997024,0.035585675905427445,0.1973282632026986,0.0
0.010352255147964375,0.035619203522110406,0.19730975595828962,0.0
0.010375590369175718,0.03560927934757225,0.1973202165746947,0.0
0.010419578602263762,0.035555098719012586,0.1973194119118943,0.0
0.010405362892790187,0.03553551859086974,0.19728668895801174,0.0
0.01039034252051622,0.03557092375408694,0.19726818171360275,0.0
0.010389806078649293,0.03552613085819851,0.19729258981854794,0.0
0.01040482645092326,0.03550360029978756,0.19732128945842856,0.0
0.010406703997457505,0.035387192414664315,0.19727086392293738,0.0
0.010395706939185494,0.03539872591480325,0.1972182926199785,0.0
0.010427893451201136,0.035705838883619175,0.19721668329437772,0.0
0.010438890509473147,0.03559345431249789,0.1972346540969198,0.0
0.010420651485997617,0.035623495057045824,0.19720997777104113,0.0
0.010380418345978065,0.03559962339396756,0.19716411199141884,0.0
0.01039034252051622,0.03560337848703605,0.1972102459919746,0.0
0.0103771996947765,0.035613302661574205,0.19717162217755582,0.0
0.01035627846196633,0.03555107540501063,0.1971681353054208,0.0
0.010349572938629738,0.03562376327797929,0.19721131887570845,0.0
0.01032865170581957,0.03561222977784035,0.19718530144516247,0.0
0.010346354287428174,0.0356406611967875,0.19718556966609593,0.0
0.01033589367102309,0.03559774584743331,0.19718154635209398,0.0
0.010334820787289235,0.03560337848703605,0.1971614297820842,0.0
0.010334820787289235,0.035564486451683815,0.19710429872325644,0.0
0.0103801501250446,0.035600964498634875,0.1971563335843484,0.0
0.010386319206514266,0.035661314208664203,0.1971968349453014,0.0
0.010342867415293146,0.03559962339396756,0.1971673306426204,0.0
0.010326237717418398,0.03561678953370923,0.1971584793518161,0.0
0.01031980041501527,0.035585675905427445,0.1971281703863347,0.0
0.010352255147964375,0.03565434046439415,0.19712843860726817,0.0
0.01035118226423052,0.03568089433680705,0.19713728989807247,0.0
0.010325433054618006,0.03562242217331197,0.19708820546724862,0.0
0.010321409740616051,0.035651121813192584,0.1970173951408142,0.0
0.010328115263952643,0.03572380968616124,0.19704743588536214,0.0
0.010318191089414487,0.03563046880131588,0.1970742579787085,0.0
0.010310144461410577,0.03562537260358007,0.1970241006641508,0.0
0.010319263973148342,0.03566453285986577,0.19702356422228387,0.0
0.010344744961827392,0.03566104598773074,0.19702973330375353,0.0
0.010352255147964375,0.035647634941057556,0.1970144447105461,0.0
0.010333479682621917,0.03563636966185208,0.196992987035869,0.0
0.010353596252631693,0.03567660280187163,0.19700505697787488,0.0
0.01035708312476672,0.03565085359225912,0.1970308061874874,0.0
0.010329724589553425,0.03561947174304387,0.19701095783841108,0.0
0.010302634275273594,0.03562805481291471,0.19698306286133085,0.0
0.010318727531281414,0.03564119763865443,0.19705253208309795,0.0
0.010316849984747169,0.0356495124875918,0.1970646020251038,0.0
0.010317922868481023,0.03563207812691666,0.19705762828083376,0.0
0.010305852926475158,0.03557950682395778,0.19703268373402164,0.0
0.01031980041501527,0.03563315101065052,0.1970106896174776,0.0
0.010330261031420353,0.03557226485875426,0.19699271881493555,0.0
0.010340185205958509,0.03554034656767208,0.1970219548966831,0.0
0.010306121147408621,0.035660777766797276,0.19697716200079465,0.0
0.010268033774856779,0.035554294056212195,0.19695704543078488,0.0
0.010285199914598454,0.035596672963699456,0.19704797232722907,0.0
0.010309876240477113,0.03556985087035309,0.19704636300162828,0.0
0.010287345682066164,0.03546363538070147,0.1970131036058788,0.0
0.010271252426058343,0.03561678953370923,0.1969967421289375,0.0
0.010288418565800019,0.03561571664997538,0.1969495352446479,0.0
0.010294051205402756,0.03557119197502041,0.19696240984945415,0.0
0.010291368996068119,0.035538200800204374,0.19699271881493555,0.0
0.010280371937796108,0.035526667300065436,0.1969420250585109,0.0
0.01029726985660432,0.035570387312220016,0.1969280775699708,0.0
0.01031255844981175,0.03557306952155465,0.1969347830933074,0.0
0.010317386426614096,0.03555778092834722,0.19691278897676337,0.0
0.010301293170606275,0.03560713358010454,0.19688489399968315,0.0
0.01027983549592918,0.035569582649419625,0.19684439263873013,0.0
0.01030451182180784,0.035489384590313984,0.19691654406983186,0.0
0.010334552566355772,0.035479192194842364,0.19694819413998058,0.0
0.010350914043297056,0.03565326758066029,0.19692861401183773,0.0
0.010344744961827392,0.03569242783694599,0.19689830504635633,0.0
0.010328383484886107,0.03557414240528851,0.1968430515340628,0.0
0.010324896612751079,0.03555912203301454,0.19692190848850114,0.0
0.010317922868481023,0.035563681788883424,0.19695865475638566,0.0
0.010302097833406666,0.035571728416887334,0.19689294062768706,0.0
0.010325433054618006,0.03548992103218091,0.19692190848850114,0.0
0.010352523368897838,0.035382096216928505,0.19697072469839152,0.0
0.010341258089692364,0.035522912206996944,0.19696160518665376,0.0
0.010328919926753034,0.035587821672895155,0.19693746530264203,0.0
0.010309339798610186,0.035477046427374655,0.1969288822327712,0.0
0.010336430112890017,0.035503332078854095,0.1969798442101293,0.0
0.01033079747328728,0.03547865575297544,0.1969562407679845,0.0
0.010316581763813705,0.03551620668366035,0.19694765769811365,0.0
0.010317386426614096,0.03551835245112806,0.19695785009358527,0.0
0.010317118205680632,0.03548375195071125,0.1969701882565246,0.0
0.010299683845005493,0.0354730231133727,0.1969428297213113,0.0
0.010270715984191416,0.0354368132873551,0.1968985732672898,0.0
0.010280640158729572,0.035437617950155494,0.19686960540647572,0.0
0.010297538077537784,0.03552747196286583,0.19686558209247376,0.0
0.010308535135809795,0.03552049821859577,0.19696857893092382,0.0
0.010298879182205102,0.03550386852072102,0.19695355855864985,0.0
0.010287882123933091,0.03552130288139616,0.19691761695356572,0.0
0.010281713042463426,0.03551969355579538,0.19693558775610778,0.0
0.010269106658590633,0.03551674312552728,0.19692995511650505,0.0
0.010247648983913539,0.03550816005565644,0.19684948883646594,0.0
0.010234237937240355,0.03547972863670929,0.19686960540647572,0.0
0.01026159647245365,0.035488043485646666,0.196970992919325,0.0
0.010283054147130745,0.03549635833458404,0.19693558775610778,0.0
0.010301561391539739,0.03550494140445488,0.19686665497620762,0.0
0.01031041268234404,0.035547052091008675,0.19683929644099432,0.0
0.01027393463539298,0.03540221278693828,0.19680603704524482,0.0
0.010293246542602365,0.03552264398606348,0.19693075977930544,0.0
0.010288418565800019,0.03551459735805957,0.19687684737167924,0.0
0.010259450704985941,0.035400335240404035,0.19682964048738963,0.0
0.010283858809931136,0.035562340684216105,0.19683071337112348,0.0
0.010294051205402756,0.03555375761434527,0.19684492908059706,0.0
0.01029431942633622,0.03551406091619264,0.19690098725569097,0.0
0.010268570216723706,0.03548884814844706,0.19688033424381426,0.0
0.010261864693387114,0.035454515868963705,0.1968822117903485,0.0
0.01027608040286069,0.03557923860302432,0.196896963941689,0.0
0.01029512408913661,0.03562322683611236,0.196896963941689,0.0
0.010282517705263818,0.035612497998773814,0.19680067262657555,0.0
0.010268570216723706,0.03552747196286583,0.19682669005712153,0.0
0.010293246542602365,0.03557736105649007,0.1969752844542604,0.0
0.010294051205402756,0.03558916277756247,0.19696670138438957,0.0
0.010265619786455606,0.03560337848703605,0.19696536027972225,0.0
0.010253013402582813,0.035571728416887334,0.19694443904691208,0.0
0.01026588800738907,0.035536859695537056,0.19695355855864985,0.0
0.010265083344588678,0.03559452719623175,0.19695892297731912,0.0
0.01026079180965326,0.035568777986619234,0.19692646824437002,0.0
0.010261060030586723,0.03558755345196169,0.19688355289501583,0.0
0.01028198126339689,0.035597209405566384,0.1968897219764855,0.0
0.010291368996068119,0.035624299719846216,0.19694336616317823,0.0
0.010273666414459516,0.035587821672895155,0.19687389694141114,0.0
0.010249526530447785,0.03551379269525918,0.19681006035924678,0.0
0.010275275740060298,0.035487238822846275,0.19679852685910784,0.0
0.010301293170606275,0.03562269039424543,0.19679477176603935,0.0
0.0102870774611327,0.03565004892945873,0.19675856194002175,0.0
0.010264815123655215,0.03561732597557616,0.1967161830325345,0.0
0.010272325309792198,0.03560981578943918,0.1966740723459807,0.0
0.010292441879801974,0.03554302877700672,0.19670250376492784,0.0
0.010272325309792198,0.035534713928069346,0.1967006262183936,0.0
0.010244162111778511,0.035529617730333536,0.1966236468104895,0.0
0.010265083344588678,0.03556341356794996,0.19666173418304136,0.0
0.010292710100735437,0.03559050388222979,0.19667192657851298,0.0
0.010297001635670856,0.035553489393411804,0.19662150104302178,0.0
0.010272325309792198,0.03554383343980711,0.19659280140314117,0.0
0.010238529472175774,0.035544906323540966,0.1966161366243525,0.0
0.01027098420512488,0.0355956000799656,0.19661720950808637,0.0
0.010289759670467337,0.03557306952155465,0.19657053906566369,0.0
0.010267765553923315,0.03549796766018482,0.19654398519325078,0.0
0.010283858809931136,0.03550064986951946,0.1966029937986128,0.0
0.010316849984747169,0.03544003193855667,0.19657456237966564,0.0
0.010341526310625827,0.03555080718407717,0.19655471403058933,0.0
0.0103380394384908,0.03565943666212996,0.1965386207745815,0.0
0.010321946182482979,0.03558943099849594,0.19653513390244648,0.0
0.010318191089414487,0.03550708717192259,0.19654103476298268,0.0
0.010320873298749124,0.03567848034840588,0.19654666740258542,0.0
0.010303707159007448,0.03561732597557616,0.19655873734459128,0.0
0.010299147403138566,0.03558031148675817,0.1966190870546206,0.0
0.010314435996345996,0.035587821672895155,0.19663437564782804,0.0
0.010332406798888062,0.035570387312220016,0.19664564092703352,0.0
0.01032275084528337,0.035578433940223926,0.19664698203170083,0.0
0.010301024949672812,0.0356044513707699,0.1966593201946402,0.0
0.010305584705541694,0.03562751837104778,0.1966606612993075,0.0
0.010323287287150297,0.035646025615456774,0.19665529688063824,0.0
0.010307998693942867,0.03561947174304387,0.19662525613609028,0.0
0.01031255844981175,0.03560337848703605,0.19667863210184958,0.0
0.010313899554479068,0.03565434046439415,0.19672557076520572,0.0
0.010321141519682588,0.0356524629178599,0.19672878941640728,0.0
0.010308803356743258,0.035595868300899065,0.19669740756719203,0.0
0.01028493169366499,0.03554061478860555,0.19667058547384567,0.0
0.010304780042741303,0.03572944232576398,0.196712427939466,0.0
0.010308535135809795,0.03569376894161331,0.19675185641668516,0.0
0.010316581763813705,0.03567150660413582,0.19678055605656578,0.0
0.010323287287150297,0.035741512267769844,0.19679316244043857,0.0
0.010316045321946778,0.0357122761860223,0.1967891391264366,0.0
0.010344744961827392,0.03568947740667789,0.1968690689646088,0.0
0.010349841159563201,0.03570986219762113,0.19690983854649527,0.0
0.010340721647825436,0.03573239275603208,0.1969133254186303,0.0
0.010342330973426218,0.03576162883777962,0.19686585031340723,0.0
0.010341526310625827,0.03563610144091862,0.19689320884862052,0.0
0.010336430112890017,0.03577477166351934,0.1969546314423837,0.0
0.010301829612473203,0.03580588529180113,0.1969007190347575,0.0
0.010298879182205102,0.035770748349517385,0.19688435755781622,0.0
0.010331333915154207,0.035806421733668055,0.19690581523249331,0.0
0.010356814903833257,0.03578791448925906,0.19688462577874968,0.0
0.01034823183396242,0.03576806614018275,0.19691734873263225,0.0
0.010343672078093537,0.03578415939619057,0.196904474127826,0.0
0.01035627846196633,0.03577852675658783,0.1968792613600804,0.0
0.010393292950784321,0.035716031279090794,0.19689240418582013,0.0
0.010373981043574936,0.03580749461740191,0.19688650332528393,0.0
0.01030746225207594,0.035740171163102526,0.19681757054538376,0.0
0.010322214403416442,0.035703693116151465,0.19688945375555203,0.0
0.010340185205958509,0.03567794390653895,0.19692700468623694,0.0
0.010346890729295101,0.03564736672012409,0.19690393768595907,0.0
0.010343403857160073,0.0356768710228051,0.19689320884862052,0.0
0.010368348403972199,0.0356857223136094,0.19689589105795516,0.0
0.01038658742744773,0.035700742685883365,0.1969111796511626,0.0
0.010364593310903704,0.0356288594757151,0.19687255583674382,0.0
0.010352255147964375,0.0356524629178599,0.19690313302315868,0.0
0.010342330973426218,0.035651926475992975,0.19687979780194734,0.0
0.01036647085743795,0.03560713358010454,0.19683741889446008,0.0
0.01035332803169823,0.035561536021415714,0.1967958446497732,0.0
0.010324896612751079,0.03568169899960744,0.1968046959405775,0.0
0.010308535135809795,0.035637442545585936,0.19677545985882997,0.0
0.010320068635948733,0.03565139003412605,0.19675507506788673,0.0
0.01033374790355538,0.03564414806892253,0.1967515881957517,0.0
0.010320068635948733,0.03553229993966817,0.19677063188202762,0.0
0.01032275084528337,0.035600159835834484,0.19676607212615874,0.0
0.010354937357299011,0.03572380968616124,0.1967891391264366,0.0
0.010350109380496665,0.03563341923158398,0.1967773374053642,0.0
0.010321677961549515,0.035620544626777724,0.19677867851003153,0.0
0.010321409740616051,0.03563261456878359,0.1967920895567047,0.0
0.01032355550808376,0.0356768710228051,0.1967781420681646,0.0
0.010326774159285325,0.03563905187118672,0.19677331409136226,0.0
0.010341526310625827,0.03558326191702627,0.19681864342911762,0.0
0.010324896612751079,0.035521571102329626,0.19683071337112348,0.0
0.010333211461688453,0.03556850976568577,0.1968513663830002,0.0
0.010359497113167894,0.03561276621970728,0.19686182699940527,0.0
0.010355742020099402,0.035582725475159345,0.1968253489524542,0.0
0.010311485566077895,0.035530154172200464,0.19679825863817438,0.0
0.010316849984747169,0.035525057974464654,0.19683366380139158,0.0
0.010355473799165939,0.035696451150947946,0.19686209522033873,0.0
0.01035842422943404,0.03560418314983644,0.1968527074876675,0.0
0.010339112322224654,0.03557146019595387,0.19683151803392387,0.0
0.010337502996623872,0.035721932139626995,0.19685297570860097,0.0
0.01034823183396242,0.03571254440695577,0.1968808706856812,0.0
0.010342062752492755,0.03567633458093817,0.19683902822006086,0.0
0.010309071577676722,0.035579775044891244,0.19685592613886907,0.0
0.010317922868481023,0.03568813630201057,0.1969310280002389,0.0
0.01030531648460823,0.03566399641799884,0.19692968689557158,0.0
0.01032355550808376,0.035601769161435266,0.1969768937798612,0.0
0.01033589367102309,0.03561947174304387,0.19694443904691208,0.0
0.010317922868481023,0.03562403149891275,0.19689750038355594,0.0
0.010333479682621917,0.03561062045223957,0.1968918677439532,0.0
0.010362447543435994,0.03560203738236873,0.1968897219764855,0.0
0.010349304717696274,0.035526667300065436,0.19688999019741896,0.0
0.010342599194359682,0.035533104602468564,0.19687523804607845,0.0
0.010338307659424263,0.0355475885328756,0.1968889173136851,0.0
0.010335625450089626,0.03556502289355074,0.19691681229076533,0.0
0.01031980041501527,0.035525862637265045,0.1969133254186303,0.0
0.010292441879801974,0.035544906323540966,0.19691761695356572,0.0
0.010301829612473203,0.0355719966378208,0.19690206013942482,0.0
0.010303975379940912,0.03544244592695784,0.19687175117394343,0.0
0.010308803356743258,0.03529090109955085,0.19691681229076533,0.0
0.010294855868203147,0.03544164126415745,0.19693961107010974,0.0
0.010306657589275549,0.03559479541716521,0.1969487305818475,0.0
0.010321946182482979,0.03550199097418678,0.19693746530264203,0.0
0.010356010241032866,0.03548402017164471,0.1969310280002389,0.0
0.010342330973426218,0.03549984520671907,0.19690474234875946,0.0
0.01031336311261214,0.03547168200870538,0.19688113890661466,0.0
0.010308535135809795,0.03545049255496175,0.19693719708170856,0.0
0.010291905437935046,0.03544110482229052,0.1969479259190471,0.0
0.010291100775134655,0.03545505231083063,0.1968897219764855,0.0
0.01026374223992136,0.035451565438695605,0.19686853252274186,0.0
0.010268570216723706,0.035435472182687784,0.1968733604995442,0.0
0.010299683845005493,0.03544298236882477,0.19694390260504516,0.0
0.010291905437935046,0.03542259757788152,0.19691225253489644,0.0
0.010292710100735437,0.0354006034613375,0.19689508639515477,0.0
0.010311217345144431,0.03545639341549795,0.1969125207558299,0.0
0.010308803356743258,0.035390142844932415,0.1968682643018084,0.0
0.01029431942633622,0.035328183809302305,0.19685887656913717,0.0
0.010306657589275549,0.03535795633291677,0.19689642749982209,0.0
0.010320068635948733,0.03530726257649214,0.19687845669728002,0.0
0.010336966554756945,0.035245035319928564,0.1968792613600804,0.0
0.010334552566355772,0.03536788050745493,0.19687979780194734,0.0
0.010311217345144431,0.035370562716789566,0.19685753546446985,0.0
0.010301829612473203,0.03535768811198331,0.196848952394599,0.0
0.010309876240477113,0.035258982808468675,0.1968328591385912,0.0
0.01031255844981175,0.03541750138014571,0.19684331975499628,0.0
0.010301293170606275,0.035371903821456885,0.1968017455103094,0.0
0.010303170717140521,0.03535312835611443,0.19675292930041902,0.0
0.010312826670745213,0.035344277065310126,0.19673549493974388,0.0
0.01030531648460823,0.03531665030916337,0.1967175241372018,0.0
0.010286541019265773,0.03530082527408901,0.19662632901982413,0.0
0.010297806298471247,0.03529948416942169,0.1967094775091979,0.0
0.010330261031420353,0.03531021300676024,0.19674676021894935,0.0
0.010329188147686498,0.03531396809982873,0.19667782743904919,0.0
0.010310680903277504,0.03534883682117901,0.19664698203170083,0.0
0.010303438938073985,0.0353643936353199,0.19658395011233687,0.0
0.010321677961549515,0.035371099158656494,0.1965769763680668,0.0
0.010343403857160073,0.035328988472102696,0.19654344875138385,0.0
0.010331333915154207,0.03524557176179549,0.19650965291376743,0.0
0.010329724589553425,0.03536627118185415,0.19648444014602184,0.0
0.010342330973426218,0.03546363538070147,0.19647612529708447,0.0
0.010336966554756945,0.03539202039146666,0.19648417192508838,0.0
0.010343403857160073,0.035358760995717164,0.19647344308774983,0.0
0.010321141519682588,0.03538531486813007,0.19644313412226844,0.0
0.010325433054618006,0.035442177706024376,0.1964471574362704,0.0
0.010339380543158118,0.035406236100940236,0.19643911080826648,0.0
0.0103380394384908,0.035307799018359065,0.19638090686570486,0.0
0.010335625450089626,0.035271320971408004,0.19636615471436436,0.0
0.010372371717974154,0.03544298236882477,0.1964004869938477,0.0
0.010402412462522086,0.035415355612678,0.1964324052849299,0.0
0.010393561171717785,0.035391483949599734,0.19643884258733302,0.0
0.010371835276107227,0.03538263265879543,0.19640102343571464,0.0
0.010369689508639517,0.03533998553037471,0.1964493032037381,0.0
0.010381759450645383,0.035381291554128114,0.19647558885521754,0.0
0.010384173439046556,0.035395239042668225,0.19644903498280464,0.0
0.010367543741171804,0.035371903821456885,0.19643106418026257,0.0
0.010357619566633648,0.03530028883222208,0.19641443448238782,0.0
0.010365397973704095,0.03532442871623381,0.19646593290161285,0.0
0.010367543741171804,0.03538155977506158,0.19649677830896117,0.0
0.010360301775968285,0.035352860135180963,0.1964922185530923,0.0
0.010351718706097447,0.03531772319289722,0.1964501078665385,0.0
0.010367811962105268,0.03533649865823968,0.19644393878506883,0.0
0.010368080183038732,0.03532362405343342,0.19644474344786922,0.0
0.010390878962383148,0.035338376204773925,0.19644823032000425,0.0
0.010358156008500576,0.03535178725144711,0.19643294172679682,0.0
0.010355742020099402,0.03532281939063303,0.19641523914518821,0.0
0.010379613683177673,0.03535768811198331,0.19643642859893184,0.0
0.01035332803169823,0.035263274343404094,0.19642811374999447,0.0
0.010336161891956554,0.035358760995717164,0.1964337463895972,0.0
0.010337771217557336,0.035387997077464706,0.19645466762240738,0.0
0.010354669136365548,0.03534320418157627,0.19647612529708447,0.0
0.010367007299304877,0.03532416049530035,0.1964788075064191,0.0
0.010347963613028956,0.03533462111170543,0.19648148971575374,0.0
0.01033589367102309,0.035337571541973534,0.1964863176925561,0.0
0.010335625450089626,0.03526273790153717,0.1965010698438966,0.0
0.010348500054895883,0.03527883115754499,0.19650884825096704,0.0
0.010365129752770631,0.035413478066143755,0.19646271425041129,0.0
0.010374785706375327,0.035381291554128114,0.19654505807698464,0.0
0.010401876020655159,0.03534588639091091,0.1965327199140453,0.0
0.010431916765203091,0.03538048689132772,0.1964951689833604,0.0
0.010440768056007393,0.03537592713545884,0.19646003204107665,0.0
0.010414482404527952,0.03529787484382091,0.1964530582968066,0.0
0.010429502776801918,0.035304043925290574,0.19649624186709425,0.0
0.010436744742005438,0.03526434722713795,0.19648202615762067,0.0
0.010404021788122868,0.03526273790153717,0.1964197989010571,0.0
0.010387123869314657,0.03520346107524169,0.19644098835480073,0.0
0.010398389148520131,0.03523323359885616,0.1965431805304504,0.0
0.01036137465970214,0.03524423065712817,0.19654425341418424,0.0
0.010354937357299011,0.03517342033069376,0.19656732041446212,0.0
0.010352255147964375,0.035143916028012756,0.19657724458900028,0.0
0.010347158950228565,0.03530431214622404,0.19657590348433296,0.0
0.010371567055173763,0.03530216637875633,0.1965882416472723,0.0
0.010365666194637559,0.03525254550606555,0.1965954836124758,0.0
0.010360301775968285,0.03526273790153717,0.1965651746469944,0.0
0.010345281403694319,0.03519809665657242,0.19653486568151302,0.0
0.010352791589831302,0.03521553101724756,0.19659762937994352,0.0
0.010379881904111137,0.035297606622887445,0.1966324981012938,0.0
0.010367007299304877,0.03524691286646281,0.19657000262379676,0.0
0.01036217932250253,0.03525576415726711,0.19656946618192983,0.0
0.010391147183316612,0.035240743784993145,0.19662391503142296,0.0
0.01041287307892717,0.03527185741327493,0.1966375942990296,0.0
0.010386050985580802,0.0353075307974256,0.1965933378450081,0.0
0.010365129752770631,0.035296801960087054,0.19659467894967542,0.0
0.010391147183316612,0.03531557742542951,0.19662740190355799,0.0
0.010410190869592533,0.03531155411142756,0.19661747772901983,0.0
0.010389001415848902,0.035288218890216216,0.19662337858955603,0.0
0.010383636997179629,0.03530323926249018,0.1966249879151568,0.0
0.010400266695054377,0.035298947727554764,0.1966236468104895,0.0
0.010427893451201136,0.03527883115754499,0.19664403160143273,0.0
0.01042091970693108,0.035338376204773925,0.1966362531943623,0.0
0.010398389148520131,0.03531665030916337,0.19660192091487894,0.0
0.010394902276385103,0.035254691273533256,0.19660701711261475,0.0
0.010430843881469237,0.03539336149613398,0.19664966424103547,0.0
0.01043325786987041,0.03537673179825923,0.19663115699662648,0.0
0.010419310381330298,0.03527400318074264,0.19663974006649731,0.0
0.010432721428003482,0.03544807856656058,0.19674515089334857,0.0
0.010435403637338119,0.03547543710177387,0.1966984804509259,0.0
0.010401339578788232,0.03541025941494219,0.19668265541585153,0.0
0.010376663252909573,0.03538987462399895,0.19668560584611963,0.0
0.010389001415848902,0.035364661856253365,0.19662606079889067,0.0
0.01043030743960231,0.03542474334534923,0.19663115699662648,0.0
0.010394097613584712,0.03541079585680912,0.1966783638809161,0.0
0.010356814903833257,0.035424475124415766,0.19665717442717248,0.0
0.010361106438768676,0.035521571102329626,0.1966346438687615,0.0
0.010373712822641473,0.035513524474325715,0.19665744264810595,0.0
0.010386050985580802,0.03547677820644119,0.19669338425319008,0.0
0.010359497113167894,0.035445664578159404,0.1966405447292977,0.0
0.010364861531837168,0.03547946041577583,0.19660272557767933,0.0
0.010387123869314657,0.035477851090175046,0.19658502299607072,0.0
0.010409117985858678,0.03547248667150577,0.19657322127499832,0.0
0.010406167555590578,0.03548697060191281,0.1965520318212547,0.0
0.010382832334379238,0.035461757834167225,0.19652520972790832,0.0
0.010377736136643428,0.035488043485646666,0.19657080728659715,0.0
0.010377467915709964,0.035387997077464706,0.19661425907781827,0.0
0.01038658742744773,0.035357419891049846,0.19663518031062843,0.0
0.01041582350919527,0.035679016790272806,0.19662713368262452,0.0
0.010434330753604264,0.03560203738236873,0.19660621244981435,0.0
0.010447741800277448,0.035523716869797335,0.1966896291601216,0.0
0.010429234555868454,0.03552559441633158,0.19669365247412354,0.0
0.010420651485997617,0.035556439823679904,0.196664416392376,0.0
0.010423333695332253,0.03552344864886387,0.1966636117295756,0.0
0.010445327811876275,0.035528813067533145,0.19666119774117444,0.0
0.010435940079205046,0.03555080718407717,0.19663357098502765,0.0
0.010395170497318567,0.035539005463004765,0.19659441072874195,0.0
0.010401071357854768,0.035572533079687725,0.19658770520540536,0.0
0.01042896633493499,0.035536859695537056,0.1965579326817909,0.0
0.010430039218668846,0.03550789183472298,0.19650080162296313,0.0
0.01039168362518354,0.035482142625110465,0.19651045757656782,0.0
0.010403753567189405,0.035477046427374655,0.19653030592564413,0.0
0.010411800195193315,0.035475705322707336,0.19649972873922927,0.0
0.01042011504413069,0.03547838753204197,0.19650509315789855,0.0
0.010401071357854768,0.03548402017164471,0.19651313978590246,0.0
0.010391147183316612,0.03552908128846661,0.1965225275185737,0.0
0.010386319206514266,0.03547221845057231,0.19646807866908056,0.0
0.01039248828798393,0.03542635267095001,0.1964922185530923,0.0
0.010387660311181584,0.03541589205454493,0.19647934394828603,0.0
0.010375858590109182,0.035363857193452974,0.19641577558705514,0.0
0.010411263753326388,0.03551969355579538,0.19645413118054045,0.0
0.010445327811876275,0.035522912206996944,0.1964442070060023,0.0
0.010438622288539683,0.03546336715976801,0.19636239962129587,0.0
0.010409654427725606,0.03532442871623381,0.19631921605100822,0.0
0.010439426951340074,0.03545612519456449,0.19641872601732324,0.0
0.010435403637338119,0.03554302877700672,0.19640907006371855,0.0
0.010415287067328343,0.03546926802030421,0.19634335593501995,0.0
0.010413677741727561,0.03547865575297544,0.19629668549259727,0.0
0.010424406579066108,0.03545183365962907,0.19628434732965794,0.0
0.010449082904944767,0.03543144886868583,0.1962854202133918,0.0
0.010443718486275493,0.03541455094987761,0.19627039984111783,0.0
0.010430039218668846,0.03543600862455471,0.19627388671325285,0.0
0.010434867195471192,0.03546229427603415,0.19627549603885364,0.0
0.01042011504413069,0.035422865798814984,0.19632726267901213,0.0
0.0104281616721346,0.035420720031347275,0.19636695937716475,0.0
0.010404021788122868,0.035462562496967616,0.19630875543460313,0.0
0.010408581543991751,0.03543815439202242,0.1963465745862215,0.0
0.010417432834796053,0.03536653940278761,0.1963326270976814,0.0
0.010405094671856723,0.035312895216094875,0.19627549603885364,0.0
0.01039034252051622,0.035303507483423646,0.19623258068949945,0.0
0.010423601916265717,0.03547221845057231,0.1963149245160728,0.0
0.01043325786987041,0.03542340224068191,0.1963200207138086,0.0
0.01043030743960231,0.03539336149613398,0.19627844646912174,0.0
0.010393829392651249,0.035379950449460795,0.19624223664310414,0.0
0.010381759450645383,0.035395239042668225,0.19626154855031352,0.0
0.010375053927308791,0.035369758053989175,0.19627764180632135,0.0
0.010393561171717785,0.0353643936353199,0.19628783420179297,0.0
0.010393561171717785,0.03533730332104007,0.1962897117483272,0.0
0.01039034252051622,0.03528902355301661,0.19627737358538788,0.0
0.010399998474120913,0.0354397637176232,0.19628488377152487,0.0
0.010408045102124824,0.035439227275756276,0.19631251052767162,0.0
0.010408045102124824,0.035414282728944146,0.19631358341140548,0.0
0.010398389148520131,0.035455856973631024,0.19631653384167358,0.0
0.010397048043852813,0.03544754212469365,0.19633396820234872,0.0
0.01039973025318745,0.03541696493827878,0.19634013728381838,0.0
0.010414482404527952,0.03542930310121811,0.1963347728651491,0.0
0.010364861531837168,0.03541616027547839,0.1962559159107108,0.0
0.010339648764091582,0.03533167068143733,0.1962854202133918,0.0
0.010379881904111137,0.035288218890216216,0.19637500600516866,0.0
0.010393024729850858,0.035298411285687836,0.19637017802836632,0.0
0.010402144241588623,0.03545800274109873,0.19636320428409626,0.0
0.010393024729850858,0.035409722973075264,0.19633235887674794,0.0
0.010418773939463371,0.03540677254280716,0.19630204991126654,0.0
0.010426820567467281,0.035396043705468616,0.1962757642597871,0.0
0.010415555288261807,0.03538746063559778,0.1963052685624681,0.0
0.010410459090525997,0.03538611953093046,0.19629400328326263,0.0
0.01043620830013851,0.03537378136799113,0.1963044638996677,0.0
0.010451765114279404,0.03533435289077197,0.19631304696953855,0.0
0.01043835406760622,0.03537726824012616,0.19629319862046224,0.0
0.010421992590664935,0.03534695927464476,0.19627442315511978,0.0
0.010426820567467281,0.03527266207607532,0.19626503542244855,0.0
0.010426820567467281,0.03543144886868583,0.19628193334125676,0.0
0.010406435776524042,0.035412673403343364,0.19626744941084973,0.0
0.010420651485997617,0.035425011566282694,0.1962706680620513,0.0
0.010386319206514266,0.035397384810135935,0.19621916964282626,0.0
0.010426552346533818,0.03539872591480325,0.19624599173617263,0.0
0.010433526090803873,0.03539416615893437,0.1961834962586756,0.0
0.010432184986136555,0.03539362971706744,0.19619717552628224,0.0
0.010427893451201136,0.035333280007038115,0.19621326878229006,0.0
0.010407240439324433,0.035379950449460795,0.19624223664310414,0.0
0.010403217125322477,0.035519961776728844,0.1962446506315053,0.0
0.010369689508639517,0.03545612519456449,0.19621782853815894,0.0
0.010347427171162028,0.03543815439202242,0.19622346117776168,0.0
0.010354400915432084,0.03539899413573672,0.19622641160802978,0.0
0.010326774159285325,0.03541294162427683,0.19623472645696716,0.0
0.01030746225207594,0.03544539635722594,0.1962454552943057,0.0
0.010296196972870465,0.035488043485646666,0.19624679639897302,0.0
0.010311217345144431,0.03547972863670929,0.1962395544337695,0.0
0.010314167775412532,0.03547034090403806,0.19624491885243878,0.0
0.010271520646991807,0.03548911636938052,0.1962011988402842,0.0
0.010269106658590633,0.035495285450850185,0.19618751957267755,0.0
0.01031470421727946,0.03554383343980711,0.19622963025923135,0.0
0.010305852926475158,0.03553551859086974,0.1961687441073351,0.0
0.010299683845005493,0.03544378703162516,0.19617115809573626,0.0
0.010291100775134655,0.03538236443786197,0.19623526289883408,0.0
0.01030236605434013,0.03550386852072102,0.1962500150501746,0.0
0.010329456368619962,0.03550681895098912,0.19623821332910218,0.0
0.010333211461688453,0.0354183060429461,0.19618027760747403,0.0
0.010320068635948733,0.035356615228249455,0.19614835931639185,0.0
0.010303975379940912,0.035489384590313984,0.19620307638681844,0.0
0.010267229112056388,0.03549850410205175,0.196165793677067,0.0
0.010236920146574992,0.03542474334534923,0.19612556053704744,0.0
0.010208220506694376,0.03536573473998722,0.19617544963067168,0.0
0.010214926030030968,0.03539684836826901,0.19621273234042313,0.0
0.01024040701871002,0.03545183365962907,0.19620522215428615,0.0
0.010235847262841137,0.035414819170811074,0.1961931522122803,0.0
0.010211707378829404,0.035415623833611465,0.1961738403050709,0.0
0.010206611181093594,0.03543815439202242,0.19615640594439576,0.0
0.010248185425780466,0.03544995611309482,0.19617115809573626,0.0
0.01024335744897812,0.03537834112386001,0.19618725135174409,0.0
0.010223509099901806,0.03538021867039426,0.19617223097947012,0.0
0.010232896832573037,0.03539684836826901,0.19615881993279694,0.0
0.010263474018987896,0.03539926235667018,0.19614406778145643,0.0
0.010264546902721751,0.035395239042668225,0.1961220736649124,0.0
0.010257036716584768,0.03542903488028465,0.19609981132743493,0.0
0.01025354984444974,0.03539282505426705,0.19613494826971867,0.0
0.010260523588719796,0.035306994355558674,0.19616552545613353,0.0
0.01026159647245365,0.03516081394682097,0.1961295838510494,0.0
0.010264010460854824,0.03539792125200286,0.19613333894411789,0.0
0.01024121168151041,0.03545800274109873,0.19613280250225096,0.0
0.010248721867647394,0.035366807623721075,0.19613521649065213,0.0
0.010267765553923315,0.035371903821456885,0.19614165379305526,0.0
0.010267765553923315,0.035340521972241634,0.1961421902349222,0.0
0.010262401135254041,0.035304043925290574,0.1960858638388948,0.0
0.010274471077259907,0.035391483949599734,0.19606038285021576,0.0
0.010274471077259907,0.035354469460781746,0.1960314149894017,0.0
0.010257841379385159,0.03532630626276806,0.19602551412886549,0.0
0.01023826125124231,0.03530806723929253,0.195973747488707,0.0
0.010247380762980075,0.0353104812276937,0.19600566577978917,0.0
0.010257304937518232,0.03528258625061348,0.19600727510538996,0.0
0.01024845364671393,0.03526649299460566,0.1959817941167109,0.0
0.010239602355909629,0.035278026494744597,0.19600003314018644,0.0
0.010217340018432141,0.035253886610732865,0.1959973509308518,0.0
0.010252208739782422,0.03529063287861739,0.1960070068844565,0.0
0.010262669356187505,0.03527078452954108,0.19601693105899465,0.0
0.010239065914042701,0.0352506679595313,0.1959745521515074,0.0
0.010224313762702197,0.03519460978443739,0.1959160799880123,0.0
0.01024550321644583,0.03509670914372315,0.19594451140695945,0.0
0.010261060030586723,0.035168592353891415,0.19600459289605532,0.0
0.010253818065383204,0.035211507703245604,0.1959721381631062,0.0
0.010241479902443874,0.0350859803063846,0.19592707704628431,0.0
0.010273129972592589,0.03527829471567806,0.19599118184938213,0.0
0.010268033774856779,0.03520158352870745,0.19599869203551912,0.0
0.010258109600318623,0.03521177592417907,0.19595765423269917,0.0
0.01022377732083527,0.03521714034284834,0.19589864562733716,0.0
0.010221095111500633,0.03519943776123974,0.19594209741855828,0.0
0.010268033774856779,0.03519809665657242,0.19596731018630387,0.0
0.010280640158729572,0.035179589412163426,0.19595255803496336,0.0
0.010291368996068119,0.03519863309843935,0.19594236563949174,0.0
0.0102900278914008,0.035230551389521525,0.19591876219734694,0.0
0.010282517705263818,0.035151962656016666,0.19590079139480487,0.0
0.010274202856326443,0.03511119307413019,0.19592090796481465,0.0
0.010252745181649349,0.03519890131937281,0.19590696047627454,0.0
0.010250062972314712,0.03527105275047454,0.19590696047627454,0.0
0.01026159647245365,0.035272125634208396,0.19592895459281856,0.0
0.010254086286316667,0.03520238819150784,0.19590749691814147,0.0
0.010224045541768733,0.03513345541160767,0.19589864562733716,0.0
0.010257573158451695,0.035331938902370796,0.1959152753252119,0.0
0.010302097833406666,0.03531745497196376,0.1959152753252119,0.0
0.010314972438212923,0.03527883115754499,0.19591849397641348,0.0
0.010292710100735437,0.035277221831944205,0.19588791678999862,0.0
0.010286272798332309,0.03526649299460566,0.19589194010400057,0.0
0.010309339798610186,0.03522438230805186,0.19595282625589683,0.0
0.010309876240477113,0.035194878005370855,0.19591742109267962,0.0
0.010307730473009404,0.035249595075797446,0.19588845323186554,0.0
0.010295660531003538,0.03518012585403035,0.19585197518491448,0.0
0.010314435996345996,0.03532711092556845,0.1958259577543685,0.0
0.010303170717140521,0.03532469693716728,0.1958090598355603,0.0
0.010289759670467337,0.03531906429756454,0.1957972581144879,0.0
0.010266424449255997,0.035333280007038115,0.19576721736993996,0.0
0.010283322368064209,0.035310749448627166,0.19582112977756616,0.0
0.01029217365886851,0.0353437406234432,0.19583507726610627,0.0
0.010291637217001583,0.03535822455385024,0.19579913566102214,0.0
0.010288418565800019,0.03534830037931208,0.19576426693967186,0.0
0.010306121147408621,0.03533354822797158,0.19572591134618655,0.0
0.010305048263674767,0.03528634134368197,0.19568621464803393,0.0
0.010310144461410577,0.03534803215837862,0.1956679756245584,0.0
0.010307194031142476,0.035347227495578226,0.1956701213920261,0.0
0.010320336856882197,0.03533167068143733,0.19578813860275013,0.0
0.010296733414737393,0.03521714034284834,0.19578277418408085,0.0
0.010272057088858734,0.03523832979659197,0.1957505876720652,0.0
0.01027098420512488,0.03530940834395985,0.19574495503246248,0.0
0.010264278681788287,0.03527319851794225,0.19573690840445856,0.0
0.010264546902721751,0.03533220712330426,0.19574388214872862,0.0
0.010264546902721751,0.03527319851794225,0.1957033807877756,0.0
0.010252476960715885,0.03524905863393052,0.19570445367150946,0.0
0.010249794751381248,0.035253886610732865,0.195674681147895,0.0
0.010270715984191416,0.035253081947932474,0.19569426127603784,0.0
0.010274471077259907,0.03519541444723778,0.19569560238070516,0.0
0.01027688506566108,0.03520909371484443,0.19568728753176778,0.0
0.010276348623794153,0.03526944342487376,0.19568701931083432,0.0
0.010267229112056388,0.03526568833180527,0.19567521758976192,0.0
0.010234237937240355,0.03523403826165655,0.1956355208916093,0.0
0.010225386646436052,0.035206411505509794,0.1956473226126817,0.0
0.010239065914042701,0.03525710526193443,0.19571625539258186,0.0
0.010219217564966387,0.03521284880791292,0.19566958495015918,0.0
0.0102361154837746,0.03515518130721823,0.19570472189244292,0.0
0.01023236039070611,0.035256032378200575,0.19569479771790477,0.0
0.010224045541768733,0.03529814306475437,0.19566770740362494,0.0
0.010224045541768733,0.03524315777339432,0.1957197422647169,0.0
0.010240138797776556,0.03517261566789337,0.19575166055579907,0.0
0.010247648983913539,0.03525335016886594,0.19576131650940376,0.0
0.010242284565244265,0.03529411975075242,0.19574280926499477,0.0
0.01023745658844192,0.03522679629645303,0.19573851773005935,0.0
0.01024040701871002,0.03521794500564873,0.1957618529512707,0.0
0.010240675239643483,0.0351849538308327,0.19576453516060532,0.0
0.01021063449509555,0.03525630059913404,0.19573637196259164,0.0
0.010192931913486946,0.035272125634208396,0.1957004303575075,0.0
0.010232896832573037,0.03518280806336499,0.19574897834646443,0.0
0.010244430332711975,0.0351849538308327,0.19578277418408085,0.0
0.010231555727905718,0.035194073342570464,0.195722692694985,0.0
0.0102361154837746,0.035245035319928564,0.19573422619512393,0.0
0.010238529472175774,0.03524557176179549,0.19577392289327655,0.0
0.010249258309514321,0.03527588072727689,0.19577821442821197,0.0
0.010230214623238398,0.035255227715400184,0.1957876021608832,0.0
0.01021438958816404,0.03520989837764482,0.19579698989355443,0.0
0.010221363332434097,0.03511441172533175,0.1957505876720652,0.0
0.01025059941418164,0.03517476143536108,0.19573020288112197,0.0
0.01025864604218555,0.03535044614677979,0.19573798128819242,0.0
0.010234774379107282,0.03528714600648236,0.19573610374165817,0.0
0.01023826125124231,0.03523377004072309,0.19571920582284996,0.0
0.010271520646991807,0.035216603900981414,0.19574093171846052,0.0
0.010269106658590633,0.03522491874991879,0.19568514176430007,0.0
0.010263205798054433,0.03521633568004795,0.1956569785662864,0.0
0.010248990088580857,0.035239939122192754,0.19568970152016896,0.0
0.010219754006833314,0.03525871458753521,0.19567334004322767,0.0
0.01019320013442041,0.035245839982728955,0.19564866371734901,0.0
0.01020044209962393,0.03522009077311644,0.19567441292696153,0.0
0.010204197192692421,0.03523189249418884,0.1956612701012218,0.0
0.01022967818137147,0.03523108783138845,0.19563203401947427,0.0
0.010227800634837225,0.03517476143536108,0.19559233732132164,0.0
0.010229409960438007,0.035197023772838565,0.19560708947266214,0.0
0.01024121168151041,0.03523028316858806,0.19558938689105354,0.0
0.010241748123377338,0.0351967555519051,0.19557758516998114,0.0
0.010242284565244265,0.03517261566789337,0.1956030661586602,0.0
0.010229409960438007,0.035118435039333706,0.19557061142571108,0.0
0.010225654867369515,0.03504896581756661,0.19556041903023946,0.0
0.010241479902443874,0.03523377004072309,0.1955904597747874,0.0
0.01023826125124231,0.035219554331249514,0.19555559105343712,0.0
0.010234774379107282,0.03514337958614583,0.1955024833086113,0.0
0.01022887351857108,0.035049770480367004,0.19549175447127276,0.0
0.010246576100179684,0.03522196831965069,0.1955386931346289,0.0
0.010254086286316667,0.03526220145967024,0.19553466982062695,0.0
0.010241748123377338,0.03518012585403035,0.19549041336660544,0.0
0.010227532413903761,0.03517932119122996,0.19545071666845282,0.0
0.010242552786177729,0.03524101200592661,0.19544481580791662,0.0
0.010248990088580857,0.03525254550606555,0.1953622037604098,0.0
0.010234774379107282,0.035168592353891415,0.19532733503905952,0.0
0.010232896832573037,0.035241816668727,0.19543918316831388,0.0
0.010226191309236443,0.03522357764525147,0.19540592377256438,0.0
0.01024630787924622,0.03520051064497359,0.19542604034257416,0.0
0.01024040701871002,0.03520989837764482,0.19534986559747047,0.0
0.01023531082097421,0.03522384586618493,0.19525974336382668,0.0
0.010227800634837225,0.035221700098717224,0.19532867614372684,0.0
0.010234774379107282,0.03523403826165655,0.19537293259774835,0.0
0.010243089228044656,0.0351280909929384,0.19533162657399494,0.0
0.010236651925641528,0.03521687212191488,0.19529192987584232,0.0
0.010248185425780466,0.0353134316579618,0.1952817374803707,0.0
0.010263205798054433,0.035213117028846386,0.19529595318984427,0.0
0.01026669267018946,0.03520909371484443,0.1953208977366564,0.0
0.010262937577120969,0.03524396243619471,0.19529890362011237,0.0
0.010261060030586723,0.03522357764525147,0.1952956849689108,0.0
0.010271520646991807,0.03521982255218298,0.1953584486673413,0.0
0.010279299054062253,0.03518656315643348,0.1953844660978873,0.0
0.010292441879801974,0.03515571774908516,0.19535576645800667,0.0
0.010294587647269683,0.03510502399266052,0.19533833209733154,0.0
0.010303975379940912,0.035273466738875714,0.19531258288771902,0.0
0.010295392310070074,0.03519300045883661,0.19525384250329048,0.0
0.01027688506566108,0.03514793934201471,0.1952943438642435,0.0
0.010269911321391025,0.035167251249224096,0.1952994400619793,0.0
0.010278762612195326,0.03519165935416929,0.1952476734218208,0.0
0.0102870774611327,0.035129968539472645,0.19523613992168187,0.0
0.010278494391261862,0.03512165369053527,0.19523909035194997,0.0
0.010274471077259907,0.03508142055051572,0.19526054802662707,0.0
0.01027903083312879,0.035128627434805326,0.19529514852704388,0.0
0.010296465193803929,0.03510502399266052,0.19523238482861338,0.0
0.010291100775134655,0.03503984630582885,0.19522058310754098,0.0
0.010255159170050522,0.03516242327242175,0.19523506703794802,0.0
0.010244966774578902,0.035168592353891415,0.19524365010781886,0.0
0.010246844321113148,0.03510690153919477,0.19526537600342941,0.0
0.010227532413903761,0.03510770620199516,0.19527181330583254,0.0
0.010228337076704152,0.03515813173748633,0.1952779823873022,0.0
0.010250062972314712,0.03515974106308711,0.19527234974769947,0.0
0.010273129972592589,0.03516671480735717,0.19525974336382668,0.0
0.01024550321644583,0.0351879042611008,0.1951967114444627,0.0
0.010223509099901806,0.035172883888826834,0.19525706115449204,0.0
0.010242552786177729,0.03514981688854896,0.19525089207302238,0.0
0.010288418565800019,0.03510609687639438,0.1953023904922474,0.0
0.010337502996623872,0.035138015167476555,0.19536622707441176,0.0
0.010338307659424263,0.03521418991258024,0.1953192884110556,0.0
0.010262401135254041,0.0350741785853122,0.19523345771234724,0.0
0.010286541019265773,0.03511494816719868,0.19528522435250573,0.0
0.010292441879801974,0.03517207922602644,0.19531016889931785,0.0
0.010275812181927226,0.03514123381867812,0.19529809895731198,0.0
0.010261060030586723,0.035138015167476555,0.195320093073856,0.0
0.010243089228044656,0.03507337392251181,0.19535764400454092,0.0
0.010275812181927226,0.03502858102662337,0.19543060009844304,0.0
0.010284395251798063,0.034937385909245715,0.1954080695400321,0.0
0.010286004577398845,0.0350741785853122,0.19543355052871114,0.0
0.010290564333267728,0.035154108423484376,0.19547271078499684,0.0
0.01031550888007985,0.03507364214344527,0.19548799937820427,0.0
0.010308535135809795,0.03504735649196583,0.19545634930805555,0.0
0.010308803356743258,0.03509912313212432,0.1954265767844411,0.0
0.01031980041501527,0.03508946717851963,0.19540377800509667,0.0
0.010328115263952643,0.034965012665392474,0.19542255347043913,0.0
0.010348768275829347,0.03505003870130047,0.19544749801725125,0.0
0.010335625450089626,0.03512031258586795,0.1954324776449773,0.0
0.010332675019821526,0.035066668399175216,0.19543006365657611,0.0
0.010353596252631693,0.0351192397021341,0.1954367691799127,0.0
0.010332406798888062,0.03509805024839047,0.19546010440112405,0.0
0.010316581763813705,0.03505888999210477,0.19548504894793617,0.0
0.01032355550808376,0.03508088410864879,0.1954855853898031,0.0
0.010316581763813705,0.035119776144001025,0.19548317140140192,0.0
0.010318191089414487,0.03511199773693058,0.1955660516698422,0.0
0.01032355550808376,0.03508651674825153,0.19559957928652516,0.0
0.010332675019821526,0.03514418424894622,0.1955829495886504,0.0
0.010336698333823481,0.0350594264339717,0.19559501953065628,0.0
0.01036352042716985,0.035056476003703596,0.1956103081238637,0.0
0.010375590369175718,0.03512540878360376,0.1956258649380046,0.0
0.010366202636504486,0.03509885491119086,0.19557463473971304,0.0
0.010359765334101358,0.0349744003980637,0.195578658053715,0.0
0.010365397973704095,0.0350106102240813,0.1956258649380046,0.0
0.010367811962105268,0.03515142621414974,0.195619159414668,0.0
0.010361642880635603,0.03526059213406946,0.1955888504491866,0.0
0.010331333915154207,0.03516322793522214,0.1955290371810242,0.0
0.010338307659424263,0.03507337392251181,0.19553815669276198,0.0
0.010333479682621917,0.03515652241188555,0.19553842491369544,0.0
0.01026883843765717,0.035117630376533315,0.19547163790126298,0.0
0.010276348623794153,0.03510100067865857,0.19554298466956432,0.0
0.010287613902999627,0.035079006562114545,0.19562908358920617,0.0
0.010260523588719796,0.03499371230527309,0.19566690274082454,0.0
0.010231823948839182,0.03497708260739834,0.1956612701012218,0.0
0.010251940518848958,0.034970108863128284,0.19568433710149968,0.0
0.01027473929819337,0.034956429595521636,0.19570311256684214,0.0
0.010291100775134655,0.03498432457260186,0.19573637196259164,0.0
0.010266156228322533,0.03501516997995018,0.1957766051026112,0.0
0.010268570216723706,0.035008732677547054,0.19581978867289884,0.0
0.0102841270308646,0.034995053409940406,0.1958798701619947,0.0
0.010301293170606275,0.03497279107246292,0.19592439483694968,0.0
0.010296196972870465,0.03494060456044728,0.1959219808485485,0.0
0.010273666414459516,0.03487435398988175,0.19593780588362286,0.0
0.010265083344588678,0.034886423931887615,0.1960053975588557,0.0
0.010306121147408621,0.03505003870130047,0.1960461671407422,0.0
0.010303438938073985,0.03493872701391303,0.19596838307003772,0.0
0.010301293170606275,0.03491378246710091,0.19599788737271873,0.0
0.010320336856882197,0.03503582299182689,0.19614084913025487,0.0
0.010320068635948733,0.03493765413017918,0.19612985207198286,0.0
0.010324091949950688,0.03492907106030834,0.19615184618852688,0.0
0.010305852926475158,0.03490788160656471,0.19613897158372062,0.0
0.010299147403138566,0.03491244136243359,0.1961671347817343,0.0
0.010318191089414487,0.03499907672394236,0.19621246411948967,0.0
0.010334016124488844,0.035012487770615545,0.19621246411948967,0.0
0.010343403857160073,0.03503930986396192,0.19616257502586543,0.0
0.010349304717696274,0.035031531456891474,0.19614567710705721,0.0
0.010349572938629738,0.03498673856100303,0.19625618413164425,0.0
0.010343940299027,0.03501141488688169,0.1963023181322,0.0
0.0103409898687589,0.03505084336410086,0.19627415493418632,0.0
0.010347963613028956,0.035058621771171306,0.1962985630391315,0.0
0.010360838217835212,0.035081152329582255,0.19636749581903168,0.0
0.01039034252051622,0.0350889307366527,0.19639002637744263,0.0
0.010353596252631693,0.03502482593355488,0.1963975365635796,0.0
0.010339648764091582,0.03520453395897555,0.1964256997615933,0.0
