-0.025989535568897198,0.059252418190529135,0.10010783077571758,0.0
-0.025995168208499935,0.05921996345758003,0.10005767346115987,0.0
-0.02598738980142949,0.05920735707370724,0.10001502633273915,0.0
-0.02600562882490502,0.05927602163267394,0.10003970265861781,0.0
-0.025996509313167254,0.05932805649376589,0.10004077554235166,0.0
-0.025989267347963734,0.05927816740014165,0.10003192425154736,0.0
-0.02602252674371323,0.059258319051065336,0.10007618070556887,0.0
-0.026024404290247476,0.05916175951501841,0.1000944197290444,0.0
-0.026030036929850214,0.059142447607809026,0.10006518364729686,0.0
-0.025993558882899153,0.05938304178512595,0.10009683371744557,0.0
-0.02600562882490502,0.05931384078429232,0.10004479885635362,0.0
-0.02601743054597742,0.059242225795057515,0.10003111958874697,0.0
-0.026000800848102672,0.059253222853329526,0.10007135272876652,0.0
-0.026021990301846303,0.05924168935319059,0.10006276965889568,0.0
-0.02602601361584826,0.05933958999390483,0.10005257726342406,0.0
-0.026029232267049823,0.05925724616733148,0.10012928845039468,0.0
-0.026004555941171164,0.05930606237722187,0.10019902589309523,0.0
-0.025990608452631053,0.05927012077213774,0.10014269949706786,0.0
-0.0260072381505058,0.05920682063184031,0.10008315444983892,0.0
-0.025993827103832617,0.05929291955148215,0.10010005236864714,0.0
-0.0260042877202377,0.05925295463239606,0.10007483960090155,0.0
-0.026002946615570382,0.05922801008558394,0.10011855961305613,0.0
-0.02598095249902636,0.05932483784256433,0.10013036133412853,0.0
-0.026004019499304237,0.05930016151668567,0.10005391836809138,0.0
-0.025973978754756304,0.05928353181881092,0.10004855394942211,0.0
-0.025971028324488204,0.0593036483888207,0.10002012253047496,0.0
-0.025983366487427533,0.059287286911879414,0.10005981922862758,0.0
-0.025996777534100717,0.05923069229491858,0.10006840229849842,0.0
-0.025993558882899153,0.05926287880693422,0.10003541112368239,0.0
-0.025985780475828706,0.0592947970980164,0.1000249505072773,0.0
-0.02596861433608703,0.05928862801654673,0.10008825064757473,0.0
-0.02597585630129055,0.059306330598155335,0.10009549261277825,0.0
-0.025995168208499935,0.05931813231922774,0.10006008744956105,0.0
-0.02600348305743731,0.05930606237722187,0.10001073479780373,0.0
-0.026009920359840438,0.059287286911879414,0.09998498558819122,0.0
-0.026008311034239655,0.05924893131839411,0.10000188350699943,0.0
-0.026005360603971555,0.05915639509634914,0.10004667640288786,0.0
-0.026007774592372728,0.05924759021372679,0.09999625086739669,0.0
-0.026005897045838482,0.05922586431811623,0.09994475244817166,0.0
-0.025987926243296416,0.0593634616569831,0.10001127123967066,0.0
-0.025969687219820885,0.05923686137638824,0.10004721284475479,0.0
-0.025984975813028315,0.05927468052800662,0.10002146363514228,0.0
-0.026001605510903063,0.05928272715601053,0.09997828006485462,0.0
-0.026001873731836527,0.05926609745813578,0.10002977848407965,0.0
-0.025982561824627142,0.05923900714385595,0.10015959741587607,0.0
-0.02599489998756647,0.05925510039986377,0.10011829139212267,0.0
-0.026001605510903063,0.05922210922504774,0.10008127690330468,0.0
-0.026009920359840438,0.05920735707370724,0.10007162094969999,0.0
-0.026001069069036136,0.059250272423061426,0.10000456571633407,0.0
-0.02602467251118094,0.05923739781825517,0.10002119541420881,0.0
-0.026005897045838482,0.059269047888403883,0.10014269949706786,0.0
-0.026032450918251387,0.05920816173650763,0.10008100868237121,0.0
-0.026013943673842393,0.05930472127255455,0.10006759763569803,0.0
-0.02601662588317703,0.05929882041201835,0.1000855684382401,0.0
-0.02601528477850971,0.059302575505086844,0.10015155078787216,0.0
-0.02600509238303809,0.05935326926151148,0.10011587740372149,0.0
-0.026047471290525353,0.05926582923720232,0.10004533529822054,0.0
-0.026016089441310102,0.059302575505086844,0.10018615128828898,0.0
-0.026027891162382504,0.05924785843466025,0.10019500257909328,0.0
-0.026029232267049823,0.05923552027172092,0.10015906097400915,0.0
-0.02600857925517312,0.0592135261551769,0.10013116599692892,0.0
-0.02600562882490502,0.05933878533110444,0.10012955667132814,0.0
-0.026007774592372728,0.05931920520296159,0.10014055372960015,0.0
-0.0260072381505058,0.059308476365623045,0.10010353924078216,0.0
-0.026006969929572337,0.059297479307351034,0.10011024476411876,0.0
-0.02602842760424943,0.05918375363156243,0.1001268744619935,0.0
-0.02602547717398133,0.05927146187680506,0.10017434956721658,0.0
-0.026000264406235745,0.05929050556308098,0.10019392969535942,0.0
-0.026008847476106583,0.05930311194695377,0.10017595889281736,0.0
-0.026017698766910884,0.05928058138854282,0.10014001728773322,0.0
-0.026011261464507756,0.05927897206294204,0.10006625653103071,0.0
-0.026008311034239655,0.05925590506266416,0.10008020401957082,0.0
-0.02603701067412027,0.059269047888403883,0.10011453629905417,0.0
-0.02603861999972105,0.05926502457440193,0.10011239053158646,0.0
-0.026013139011042002,0.0593664120872512,0.10009683371744557,0.0
-0.02599624109223379,0.05936507098258388,0.1001188278339896,0.0
-0.026041302209055688,0.05934012643577176,0.10007323027530077,0.0
-0.026054176813861945,0.05927977672574243,0.10008878708944166,0.0
-0.026044789081190716,0.05922559609718277,0.10004989505408943,0.0
-0.026025745394914795,0.05938384644792634,0.10006142855422837,0.0
-0.026029500487983286,0.05932939759843321,0.10002253651887613,0.0
-0.026016357662243566,0.059312231458691536,0.10005740524022641,0.0
-0.02602467251118094,0.059332616249634776,0.10002173185607574,0.0
-0.026021453859979376,0.05934012643577176,0.10003111958874697,0.0
-0.026010993243574292,0.059334762017102485,0.10011560918278803,0.0
-0.02601152968544122,0.05935273281964455,0.1001445770436021,0.0
-0.02599704575503418,0.059368289633785445,0.10009254218251015,0.0
-0.026013139011042002,0.05927655807454087,0.10011239053158646,0.0
-0.025994363545699544,0.059323764958830474,0.10014564992733596,0.0
-0.02597719740595787,0.059311426795891145,0.10012258292705808,0.0
-0.025993558882899153,0.05928540936534517,0.10007939935677043,0.0
-0.026014211894775856,0.05927655807454087,0.10003648400741624,0.0
-0.026002946615570382,0.05930230728415338,0.10010085703144753,0.0
-0.02598095249902636,0.059285141144411704,0.1001874923929563,0.0
-0.025972369429155522,0.059336103121769804,0.1001660347182792,0.0
-0.025984171150227924,0.0592977475282845,0.10016952159041423,0.0
-0.026021990301846303,0.05924571266719254,0.10006974340316574,0.0
-0.02600214195276999,0.05923069229491858,0.10012928845039468,0.0
-0.025996509313167254,0.05926100126039997,0.10005069971688982,0.0
-0.026001605510903063,0.05940637700633729,0.10007457137996809,0.0
-0.026012870790108538,0.059350855273110306,0.10018990638135747,0.0
-0.02602172208091284,0.05931464544709271,0.10012446047359233,0.0
-0.025987658022362952,0.059259660155732655,0.10012794734572736,0.0
-0.025995704650366862,0.05945170634409265,0.10008825064757473,0.0
-0.026001605510903063,0.0593302022612336,0.10009629727557864,0.0
-0.025976124522224014,0.0594026219132688,0.10014672281106982,0.0
-0.025990876673564516,0.05940637700633729,0.10019232036975864,0.0
-0.02599329066196569,0.059378482029257065,0.10020707252109914,0.0
-0.02599114489449798,0.05940154902953494,0.10016147496241032,0.0
-0.026012602569175074,0.059354342145245334,0.10013143421786239,0.0
-0.025984975813028315,0.05936265699418271,0.10016201140427725,0.0
-0.02597880673155865,0.05937445871525511,0.10014082195053362,0.0
-0.026002946615570382,0.05936560742445081,0.10010058881051406,0.0
-0.025997850417834572,0.05932403317976394,0.10018802883482322,0.0
-0.025995972871300326,0.0593154501098931,0.10023979547498171,0.0
-0.025983366487427533,0.059354342145245334,0.10021243693976842,0.0
-0.025958958382482338,0.05937955491299092,0.10019205214882518,0.0
-0.02596351813835122,0.05931169501682461,0.10020948650950032,0.0
-0.025956007952214238,0.05932805649376589,0.10024569633551791,0.0
-0.025940182917139877,0.059370435401253155,0.10022826197484277,0.0
-0.025939378254339486,0.059233374504253214,0.10016201140427725,0.0
-0.02597210120822206,0.059175975224491986,0.10018320085802088,0.0
-0.025950911754478424,0.05937579981992243,0.10020385386989758,0.0
-0.02592650364953323,0.05946565383263276,0.10025481584725568,0.0
-0.02591792057966239,0.059404767680736506,0.10023335817257858,0.0
-0.02593025874260172,0.05937284938965433,0.10017676355561775,0.0
-0.025922748556464738,0.05939216129686371,0.10029665831287601,0.0
-0.025935891382204458,0.05933798066830405,0.10028056505686819,0.0
-0.025929722300734794,0.059287286911879414,0.10024757388205216,0.0
-0.025919798126196637,0.05931759587736081,0.10024864676578601,0.0
-0.025913629044726973,0.05930150262135299,0.10027734640566663,0.0
-0.02591792057966239,0.05929050556308098,0.10023308995164512,0.0
-0.02593320917286982,0.05927414408613969,0.10022021534683886,0.0
-0.025932940951936358,0.0593154501098931,0.10023362639351205,0.0
-0.025932940951936358,0.05930472127255455,0.10024596455645138,0.0
-0.025917115916862,0.05931410900522578,0.10032160285968814,0.0
-0.025913629044726973,0.059293992435216006,0.10029343966167445,0.0
-0.02593964647527295,0.059271998318671984,0.10025401118445529,0.0
-0.02596190881275044,0.059186167619963606,0.10020760896296607,0.0
-0.02591845702152932,0.05936480276165042,0.1003100693595492,0.0
-0.025914701928460827,0.0593752633780555,0.10034386519716562,0.0
-0.025932940951936358,0.05930525771442148,0.10029639009194255,0.0
-0.025931868068202503,0.05924571266719254,0.1003551304763711,0.0
-0.025939914696206413,0.05922425499251545,0.10038409833718517,0.0
-0.025941524021807195,0.059334762017102485,0.10039536361639065,0.0
-0.025940719359006804,0.05929211488868176,0.10040931110493076,0.0
-0.025919798126196637,0.059285945807212095,0.10040662889559612,0.0
-0.025936427824071386,0.059244371562525225,0.1003307223714259,0.0
-0.025934818498470603,0.05923149695771897,0.10031167868514998,0.0
-0.02591550659126122,0.059354342145245334,0.10041896705853545,0.0
-0.02591631125406161,0.05929131022588137,0.10043237810520864,0.0
-0.025933477393803285,0.0593154501098931,0.10042352681440433,0.0
-0.025947961324210324,0.05928648224907902,0.10044096117507947,0.0
-0.02592730831233362,0.05934656373817489,0.10041467552360003,0.0
-0.025971028324488204,0.05920118799223757,0.10038409833718517,0.0
-0.025949302428877642,0.0591507624567464,0.10037658815104819,0.0
-0.025953325742879597,0.05930177084228645,0.10044713025654914,0.0
-0.025969687219820885,0.05925697794639802,0.10038946275585445,0.0
-0.025979074952492114,0.059234179167053605,0.10047261124522819,0.0
-0.025960835929016584,0.05931115857495768,0.10047636633829668,0.0
-0.025950107091678033,0.05929667464455064,0.10044096117507947,0.0
-0.02595064353354496,0.05928621402814556,0.10040072803505992,0.0
-0.025946083777676078,0.05922130456224735,0.1004718065824278,0.0
-0.025935891382204458,0.059189654492098634,0.10049970155950802,0.0
-0.025955203289413847,0.059307671702822654,0.1005021155479092,0.0
-0.02597371053382284,0.059281654272276676,0.10048629051283484,0.0
-0.025968346115153567,0.05925697794639802,0.10047341590802858,0.0
-0.025935891382204458,0.05935970656391461,0.10048843628030255,0.0
-0.025961104149950048,0.05926368346973461,0.10049031382683679,0.0
-0.025945279114875687,0.05928970090028059,0.10050479775724383,0.0
-0.02594259690554105,0.05926502457440193,0.10058258182794833,0.0
-0.025938037149672168,0.059242225795057515,0.10055441862993464,0.0
-0.025936159603137922,0.059306330598155335,0.10053376561805794,0.0
-0.025924089661132056,0.059301234400419525,0.10054824954846497,0.0
-0.02592516254486591,0.059228278306517404,0.10059116489781916,0.0
-0.025948765987010715,0.05922935119025126,0.1006322027006391,0.0
-0.025965127463952003,0.059243566899724834,0.10062657006103637,0.0
-0.02596485924301854,0.059166319270887294,0.10064132221237687,0.0
-0.025924626102998984,0.05926502457440193,0.10070784100387586,0.0
-0.025940987579940268,0.059285141144411704,0.10067350872439251,0.0
-0.02591926168432971,0.05926663390000271,0.10067538627092676,0.0
-0.025917384137795464,0.05932188741229623,0.10061798699116553,0.0
-0.02591201971912619,0.059317327656427346,0.1006751180499933,0.0
-0.025928381196067475,0.0592762898536074,0.10067270406159212,0.0
-0.025934818498470603,0.059226937201850086,0.10065392859624966,0.0
-0.025936427824071386,0.05929721108641757,0.10065473325905006,0.0
-0.025923284998331665,0.05922264566691467,0.1007075727829424,0.0
-0.025935891382204458,0.059265561016268856,0.10075773009750011,0.0
-0.025911483277259263,0.05934656373817489,0.10078723440018111,0.0
-0.025918725242462783,0.059252418190529135,0.10068048246866257,0.0
-0.025915774812194682,0.059236324934521314,0.10073063978322028,0.0
-0.02590182732365457,0.05920252909690489,0.10080413231898933,0.0
-0.02587554167217513,0.059185362957163215,0.10085697184288167,0.0
-0.02587688277684245,0.059295333539883324,0.10087360154075642,0.0
-0.02591926168432971,0.05919528713170137,0.10083739171473882,0.0
-0.02590316842832189,0.05928943267934712,0.10087333331982296,0.0
-0.025887611614180996,0.059260464818533046,0.10085643540101474,0.0
-0.025898608672453007,0.05921915879477964,0.10086179981968402,0.0
-0.025888148056047923,0.05920923462024148,0.10079876790032005,0.0
-0.025913092602860045,0.059138692514740535,0.1007429779461596,0.0
-0.02588573406764675,0.05935407392431187,0.10080198655152162,0.0
-0.025904241312055744,0.05923686137638824,0.10089425455263312,0.0
-0.025927040091400157,0.05925134530679528,0.10087306509888949,0.0
-0.02591201971912619,0.059194750689834444,0.10088540326182882,0.0
-0.02591201971912619,0.059210843945842265,0.10087682019195798,0.0
-0.025914701928460827,0.05925939193479919,0.10087413798262335,0.0
-0.025915774812194682,0.05924276223692444,0.10088298927342765,0.0
-0.025921943893664347,0.05920387020157221,0.10091168891330826,0.0
-0.02592221211459781,0.05919233670143327,0.10090444694810474,0.0
-0.025915774812194682,0.059249467760261035,0.10087360154075642,0.0
-0.0259200663471301,0.05926824322560349,0.10085241208701279,0.0
-0.025925967207666302,0.05923015585305165,0.10088164816876033,0.0
-0.02592140745179742,0.05924571266719254,0.10083336840073687,0.0
-0.025906387079523453,0.059162832398752266,0.10086957822675446,0.0
-0.025898340451519543,0.059203601980638745,0.10090927492490709,0.0
-0.025895390021251442,0.05930016151668567,0.10084329257527502,0.0
-0.02587178657910664,0.05926958433027081,0.10088889013396385,0.0
-0.025863471730169264,0.05928058138854282,0.10085187564514586,0.0
-0.025901290881787643,0.05921540370171115,0.10082693109833374,0.0
-0.025880369648977476,0.05925349107426299,0.10083524594727111,0.0
-0.025899949777120325,0.059236324934521314,0.10080842385392474,0.0
-0.02590102266085418,0.05923900714385595,0.10082585821459988,0.0
-0.025921943893664347,0.059167123933687685,0.10079715857471927,0.0
-0.02594474267300876,0.059283800039744386,0.100821298458731,0.0
-0.02594393801020837,0.05923873892292249,0.10086528669181904,0.0
-0.025922480335531274,0.05922130456224735,0.10085402141261357,0.0
-0.025931063405402112,0.05926100126039997,0.10081298360979363,0.0
-0.025953862184746525,0.059214599038910756,0.10082639465646681,0.0
-0.02594849776607725,0.059226937201850086,0.10086072693595016,0.0
-0.025925430765799375,0.059291042004947905,0.10086260448248441,0.0
-0.025921139230863956,0.05921272149237651,0.10082371244713217,0.0
-0.02594259690554105,0.059268511446536956,0.10083444128447072,0.0
-0.025961104149950048,0.059155590433548746,0.10080735097019089,0.0
-0.025923821440198593,0.05930874458655651,0.1009586275766644,0.0
-0.025895658242184906,0.059401012587668015,0.10090981136677402,0.0
-0.025934818498470603,0.05926717034186964,0.10087065111048832,0.0
-0.025924626102998984,0.05929935685388528,0.10088889013396385,0.0
-0.02591926168432971,0.05932912937749975,0.10086555491275251,0.0
-0.025918993463396246,0.05925483217893031,0.10091946732037871,0.0
-0.025929990521668257,0.05927441230707316,0.10089210878516541,0.0
-0.025921943893664347,0.059323764958830474,0.1008390010403396,0.0
-0.02590906928885809,0.05920011510850372,0.10090096007596971,0.0
-0.025885465846713286,0.05927897206294204,0.1009859861118777,0.0
-0.02589673112591876,0.05933824888923751,0.10097203862333759,0.0
-0.025900486218987252,0.059260464818533046,0.10093100082051765,0.0
-0.02590182732365457,0.05930096617948606,0.10089532743636698,0.0
-0.02592811297513401,0.05923873892292249,0.10099322807708122,0.0
-0.025910946835392336,0.059341199319505614,0.101090860496862,0.0
-0.025903704870188816,0.05935246459871109,0.10106001508951368,0.0
-0.025925430765799375,0.05929157844681483,0.10105304134524362,0.0
-0.025935891382204458,0.05929050556308098,0.10104123962417122,0.0
-0.025924089661132056,0.05927226653960545,0.10107476724085418,0.0
-0.025914433707527364,0.05926663390000271,0.10107852233392267,0.0
-0.02591631125406161,0.059269852551204275,0.10115925683489524,0.0
-0.025918725242462783,0.05926421991160154,0.10118286027704004,0.0
-0.025941524021807195,0.05923954358572288,0.1011359216136839,0.0
-0.025952252859145743,0.05926073303946651,0.10113163007874848,0.0
-0.025945279114875687,0.05923739781825517,0.10117159499783457,0.0
-0.02593320917286982,0.059207893515574164,0.1011780323002377,0.0
-0.025930795184468648,0.05919448246890098,0.10112733854381306,0.0
-0.025916043033128146,0.05923230162051936,0.10118473782357429,0.0
-0.02592730831233362,0.05929452887708293,0.10121263280065451,0.0
-0.025913897265660436,0.05930472127255455,0.10114101781141971,0.0
-0.025885197625779822,0.05925724616733148,0.10112277878794418,0.0
-0.025880906090844404,0.05913252343327087,0.10123838201026703,0.0
-0.02588492940484636,0.059171415468623104,0.10122765317292848,0.0
-0.02589297603285027,0.05931518188895964,0.10123087182413004,0.0
-0.0259053141957896,0.05925295463239606,0.10121799721932379,0.0
-0.025913092602860045,0.05919904222476986,0.10116998567223379,0.0
-0.02589458535845105,0.059199310445703326,0.10117186321876803,0.0
-0.025895658242184906,0.05925295463239606,0.10120002641678172,0.0
-0.025872323020973566,0.05928621402814556,0.10120995059131987,0.0
-0.025886806951380605,0.05922345032971506,0.10115764750929446,0.0
-0.02588787983511446,0.059186972282764,0.10121290102158798,0.0
-0.02590316842832189,0.0591899227130321,0.10123167648693043,0.0
-0.02592730831233362,0.059190459154899025,0.10120512261451753,0.0
-0.02591792057966239,0.05922425499251545,0.10123891845213395,0.0
-0.02591041039352541,0.05922747364371701,0.10116810812569954,0.0
-0.025905045974856135,0.05918589939903014,0.10120539083545099,0.0
-0.025897267567785688,0.059220231678513494,0.10122979894039619,0.0
-0.0259112150563258,0.059228278306517404,0.10118259205610658,0.0
-0.02593750070780524,0.05934602729630796,0.10117642297463691,0.0
-0.02597156476635513,0.05927012077213774,0.10130516902269948,0.0
-0.02594769310327686,0.059352196377777625,0.10136551873272881,0.0
-0.025928381196067475,0.05936212055231578,0.10134996191858792,0.0
-0.02595198463821228,0.05934549085444103,0.10137785689566814,0.0
-0.025964054580218148,0.05926502457440193,0.10136498229086188,0.0
-0.025939914696206413,0.0592947970980164,0.10140602009368183,0.0
-0.025916847695928537,0.05939940326206723,0.10141460316355266,0.0
-0.025921139230863956,0.05936185233138232,0.10137356536073272,0.0
-0.02591550659126122,0.059349245947509524,0.1013633729652611,0.0
-0.025963786359284684,0.059282995376943995,0.10137383358166618,0.0
-0.025947424882343396,0.05930391660975416,0.10142211334968965,0.0
-0.025949570649811106,0.05936480276165042,0.10133038179044507,0.0
-0.025937232486871777,0.05928031316760936,0.10135586277912412,0.0
-0.025931331626335576,0.059261805923200364,0.10153503436267786,0.0
-0.02592355321926513,0.05920413842250567,0.10149426478079138,0.0
-0.02594474267300876,0.0592105757249088,0.1014446439081006,0.0
-0.0259562761731477,0.05925939193479919,0.10146797912931194,0.0
-0.02595681261501463,0.0593870650991279,0.10154013056041367,0.0
-0.025967541452353176,0.0593243014006974,0.10151652711826886,0.0
-0.02593750070780524,0.05937070362218662,0.10153744835107903,0.0
-0.025987926243296416,0.059282995376943995,0.10150016564132758,0.0
-0.025996509313167254,0.059270657214004666,0.10154120344414752,0.0
-0.025992754220098762,0.05928031316760936,0.10156185645602422,0.0
-0.02598685335956256,0.059326715389098575,0.10154710430468372,0.0
-0.02599409532476608,0.05929050556308098,0.10154495853721601,0.0
-0.02599624109223379,0.05927736273734126,0.10161040444498115,0.0
-0.025991681336364907,0.059280849609476285,0.10158975143310445,0.0
-0.02597505163849016,0.059302039063219916,0.1015575649210888,0.0
-0.025968346115153567,0.05938250534325902,0.10158465523536864,0.0
-0.025973174091955913,0.059264756353468465,0.10157446283989702,0.0
-0.025976124522224014,0.05926582923720232,0.10170750042289502,0.0
-0.02598470759209485,0.0592017244341045,0.10166619439914161,0.0
-0.025991681336364907,0.05925000420212796,0.1016211332823197,0.0
-0.025985512254895243,0.05921862235291271,0.1016278388056563,0.0
-0.025970223661687813,0.05923391094612014,0.10161255021244886,0.0
-0.02594849776607725,0.05936158411044885,0.10167048593407703,0.0
-0.02597210120822206,0.059303380167887235,0.1016817512132825,0.0
-0.025978538510625187,0.059206552410906846,0.10162274260792048,0.0
-0.025962981696484293,0.059335566679902876,0.1016847016435506,0.0
-0.025948765987010715,0.059383578226992875,0.10171152373689697,0.0
-0.025966736789552785,0.059308476365623045,0.1017091097484958,0.0
-0.025981220719959824,0.05931625477269349,0.10167343636434513,0.0
-0.02596646856861932,0.05932215563322969,0.10165680666647038,0.0
-0.025975588080357086,0.05937901847112399,0.10163990874766217,0.0
-0.025976929185024405,0.059295333539883324,0.10166485329447429,0.0
-0.025974783417556695,0.05933127514496746,0.10164527316633144,0.0
-0.026002946615570382,0.05929855219108489,0.10159618873550758,0.0
-0.025985780475828706,0.05929426065614947,0.10170884152756234,0.0
-0.02600857925517312,0.059192604922366734,0.10170481821356038,0.0
-0.025978538510625187,0.0592615377022669,0.10172037502770127,0.0
-0.02595842194061541,0.059470213588501644,0.10175738951651926,0.0
-0.025982830045560606,0.05941978805301047,0.10169167538782066,0.0
-0.026028695825182895,0.059285945807212095,0.10167772789928055,0.0
-0.02599999618530228,0.05929050556308098,0.10169248005062105,0.0
-0.02596271347555083,0.059313572563358855,0.10176114460958775,0.0
-0.026004019499304237,0.059174365898891204,0.10169301649248798,0.0
-0.02599409532476608,0.059358097238313826,0.10172922631850558,0.0
-0.025974783417556695,0.059345759075374496,0.10174505135357993,0.0
-0.025977465626891332,0.05938223712232556,0.10177750608652904,0.0
-0.02598229360369368,0.05932939759843321,0.10175282976065038,0.0
-0.025985512254895243,0.059312767900558463,0.10175202509784999,0.0
-0.025997582196901108,0.05932832471469936,0.10176677724919049,0.0
-0.0259954364294334,0.05932000986576198,0.10174719712104764,0.0
-0.02598819446422988,0.05924249401599098,0.1017364682837091,0.0
-0.02598738980142949,0.05934173576137254,0.1017962815518715,0.0
-0.02599919152250189,0.059308476365623045,0.10179681799373842,0.0
-0.02597210120822206,0.05934736840097528,0.10177616498186172,0.0
-0.02597371053382284,0.05934897772657606,0.10172305723703591,0.0
-0.02600053262716921,0.059219695236646566,0.10175175687691652,0.0
-0.025993558882899153,0.059277899179208185,0.10175926706305351,0.0
-0.026010993243574292,0.05925805083013187,0.10177536031906133,0.0
-0.02597371053382284,0.059234179167053605,0.10179172179600261,0.0
-0.025971296545421668,0.059374726936188574,0.10176516792358971,0.0
-0.025968077894220103,0.05936372987791656,0.10181371591254663,0.0
-0.025962177033683902,0.059382773564192484,0.10186038635496932,0.0
-0.02597076010355474,0.0593006979585526,0.10183892868029222,0.0
-0.025974246975689768,0.05927226653960545,0.10182900450575406,0.0
-0.02598095249902636,0.05929050556308098,0.10180969259854468,0.0
-0.025969687219820885,0.059285141144411704,0.10174371024891261,0.0
-0.025962445254617366,0.0593272518309655,0.10182444474988518,0.0
-0.025966200347685858,0.05932805649376589,0.10180969259854468,0.0
-0.025961640591816975,0.059285141144411704,0.10180942437761122,0.0
-0.02595681261501463,0.05923873892292249,0.10183195493602216,0.0
-0.025984171150227924,0.05919206848049981,0.10177750608652904,0.0
-0.025977733847824796,0.05937097184312008,0.10177160522599284,0.0
-0.025975319859423623,0.059266902120936174,0.10181425235441356,0.0
-0.02596861433608703,0.05929721108641757,0.10180701038921004,0.0
-0.025973174091955913,0.05926234236506729,0.1017718734469263,0.0
-0.025975319859423623,0.05926931610933735,0.10182095787775015,0.0
-0.025976124522224014,0.059223986771581985,0.1018531443897658,0.0
-0.02598229360369368,0.05912689079366813,0.10178930780760144,0.0
-0.02596137237088351,0.059251613527728744,0.1018552901572335,0.0
-0.025993827103832617,0.05938760154099483,0.10179815909840574,0.0
-0.025981220719959824,0.059344954412574105,0.10178018829586367,0.0
-0.02598980378983066,0.059288896237480196,0.10178984424946837,0.0
-0.025984439371161388,0.059295333539883324,0.10185716770376775,0.0
-0.02598390292929446,0.059277094516407794,0.10188023470404563,0.0
-0.02598470759209485,0.059292383109615224,0.10187540672724328,0.0
-0.025989535568897198,0.0593006979585526,0.10185582659910043,0.0
-0.025989535568897198,0.059280044946675894,0.10192073606499864,0.0
-0.025992217778231835,0.05923364272518668,0.10192985557673641,0.0
-0.02599034023169759,0.059273607644272766,0.10189123176231764,0.0
-0.026000800848102672,0.059302575505086844,0.10185180328509848,0.0
-0.025974783417556695,0.059264488132535,0.10196231030968551,0.0
-0.02597880673155865,0.05924785843466025,0.10197384380982445,0.0
-0.025984171150227924,0.05919206848049981,0.10193977975127456,0.0
-0.02598819446422988,0.059355146808045725,0.10194514416994384,0.0
-0.02598899912703027,0.059316522993626955,0.10195748233288317,0.0
-0.02598390292929446,0.05926717034186964,0.10189552329725306,0.0
-0.025963786359284684,0.05926609745813578,0.10194326662340959,0.0
-0.025977465626891332,0.059236324934521314,0.10194889926301233,0.0
-0.025986585138629097,0.059364534540716954,0.10192502759993406,0.0
-0.025969687219820885,0.05934549085444103,0.1019690158330221,0.0
-0.025972369429155522,0.059392965959664104,0.10199208283329998,0.0
-0.02596566390581893,0.05933288447056824,0.10199476504263462,0.0
-0.02595359396381306,0.05929855219108489,0.10203097486865222,0.0
-0.02595761727781502,0.05932027808669545,0.10199905657757004,0.0
-0.025980684278092896,0.05926717034186964,0.10193012379766987,0.0
-0.02594474267300876,0.05929291955148215,0.10203741217105534,0.0
-0.02596861433608703,0.05922559609718277,0.10203821683385574,0.0
-0.025977733847824796,0.05928540936534517,0.10205886984573244,0.0
-0.025955739731280774,0.059282995376943995,0.10213879968390462,0.0
-0.02598095249902636,0.05923015585305165,0.10210795427655629,0.0
-0.025957349056881556,0.05926582923720232,0.1020776453110749,0.0
-0.025981488940893287,0.05922935119025126,0.10207630420640758,0.0
-0.02599329066196569,0.059288896237480196,0.10210044409041931,0.0
-0.02599624109223379,0.05933878533110444,0.10206825757840367,0.0
-0.025998655080634963,0.05931089035402422,0.10205538297359741,0.0
-0.025987658022362952,0.05928916445841366,0.10202426934531562,0.0
-0.025985512254895243,0.05925510039986377,0.10202695155465026,0.0
-0.02598175716182675,0.05913413275887165,0.10200415277530585,0.0
-0.025976124522224014,0.05930230728415338,0.10198028111222758,0.0
-0.025972637650088986,0.059417910506476226,0.10204867745026082,0.0
-0.02598524403396178,0.0593693625175193,0.10206745291560328,0.0
-0.025977733847824796,0.059302575505086844,0.10199664258916886,0.0
-0.02595842194061541,0.05933073870310053,0.10202400112438216,0.0
-0.02595842194061541,0.059321619191362765,0.1021160009045602,0.0
-0.025947961324210324,0.05930874458655651,0.1021366539164369,0.0
-0.025950107091678033,0.05930740348188919,0.10208488727627842,0.0
-0.026001069069036136,0.05924276223692444,0.10205216432239585,0.0
-0.025984975813028315,0.059286750470012486,0.10208005929947607,0.0
-0.025968882557020494,0.05926931610933735,0.1020776453110749,0.0
-0.025973442312889377,0.05926100126039997,0.1022090735684721,0.0
-0.025974246975689768,0.05932322851696355,0.10219780828926663,0.0
-0.025969418998887422,0.05931518188895964,0.10216562177725098,0.0
-0.025994363545699544,0.059292383109615224,0.10215086962591048,0.0
-0.02601823520877781,0.05930606237722187,0.10211653734642713,0.0
-0.025999727964368818,0.059330470482167066,0.10211546446269328,0.0
-0.025987658022362952,0.059352196377777625,0.10211519624175981,0.0
-0.026007774592372728,0.05922452321344891,0.1020591380666659,0.0
-0.026008847476106583,0.05914727558461137,0.10204384947345847,0.0
-0.02600348305743731,0.059327520051898966,0.10208005929947607,0.0
-0.02602547717398133,0.059248126655593716,0.10208703304374613,0.0
-0.0259924859991653,0.059308476365623045,0.10213102127683417,0.0
-0.025980416057159433,0.05935997478484807,0.1021130504742921,0.0
-0.026022258522779767,0.059264756353468465,0.1020679893574702,0.0
-0.026034328464785633,0.05923686137638824,0.1020296337639849,0.0
-0.02601367545290893,0.05928970090028059,0.10204304481065808,0.0
-0.026012602569175074,0.05923954358572288,0.10207737709014143,0.0
-0.026016089441310102,0.059288091574679805,0.10211197759055825,0.0
-0.026019308092511666,0.059299088632951816,0.10212512041629797,0.0
-0.026053372151061554,0.05924276223692444,0.10207228089240562,0.0
-0.026061418779065464,0.05925510039986377,0.10205752874106512,0.0
-0.02604881239519267,0.05925697794639802,0.1020628931597344,0.0
-0.02604425263932379,0.05929345599334908,0.10211063648589093,0.0
-0.026101383698151553,0.059190459154899025,0.10207254911333909,0.0
-0.026052835709194627,0.059248126655593716,0.10220585491727054,0.0
-0.026060882337198537,0.05908719409551551,0.102158111591114,0.0
-0.02602896404611636,0.059229887632118186,0.10216374423071674,0.0
-0.026044520860257252,0.05933529845896941,0.10214470054444082,0.0
-0.0260641009884001,0.059265561016268856,0.10210741783468937,0.0
-0.02604800773239228,0.05921567192264461,0.1021138551370925,0.0
-0.02603620601131988,0.05926287880693422,0.10222570326634685,0.0
-0.026040497546255297,0.05928567758627863,0.1021972718473997,0.0
-0.026065978534934347,0.05918348541062897,0.10212887550936646,0.0
-0.02607268405827094,0.059249467760261035,0.10208783770654652,0.0
-0.026048544174259208,0.059242225795057515,0.1021248521953645,0.0
-0.026017162325043957,0.05940020792486762,0.10225467112716093,0.0
-0.02605390859292848,0.059293992435216006,0.10221363332434098,0.0
-0.026063028104666246,0.059262610586000755,0.10220183160326858,0.0
-0.026035401348519487,0.05931115857495768,0.10219566252179892,0.0
-0.02606463743026703,0.05923552027172092,0.10218573834726076,0.0
-0.026054713255728872,0.059290237342147514,0.10222114351047797,0.0
-0.02603271913918485,0.059253759295196454,0.10223455455715115,0.0
-0.02603191447638446,0.05928970090028059,0.10225198891782629,0.0
-0.026000264406235745,0.0593693625175193,0.10224877026662473,0.0
-0.02602172208091284,0.05920816173650763,0.10225225713875975,0.0
-0.02601448011570932,0.059253759295196454,0.1023590090702783,0.0
-0.02602333140651362,0.05935675613364651,0.10235149888414131,0.0
-0.02603861999972105,0.059372581168720864,0.10231180218598869,0.0
-0.02603781533692066,0.05935031883124338,0.10229007629037813,0.0
-0.026033255581051778,0.059312767900558463,0.10229758647651511,0.0
-0.026052567488261163,0.059312231458691536,0.10228578475544271,0.0
-0.026042643313723007,0.05926958433027081,0.1022600355458302,0.0
-0.026051226383593844,0.05929989329575221,0.10229705003464819,0.0
-0.02606758786053513,0.059244371562525225,0.1023287001047969,0.0
-0.026058468348797364,0.05935702435457997,0.1023354056281335,0.0
-0.026053372151061554,0.059403158355135724,0.10237242011695148,0.0
-0.026058468348797364,0.059399671483000696,0.10234747557013936,0.0
-0.026056322581329654,0.0593487095056426,0.10233862427933506,0.0
-0.026048544174259208,0.05936721675005159,0.10230563310451903,0.0
-0.026053372151061554,0.059381432459525166,0.10229141739504545,0.0
-0.02607348872107133,0.059367484970985054,0.10225333002249361,0.0
-0.026089850198012614,0.05933154336590092,0.10224179652235467,0.0
-0.026042643313723007,0.05934683195910835,0.10229731825558165,0.0
-0.026070806511736693,0.059243030457857906,0.10224581983635662,0.0
-0.026075902709472503,0.0594055723435369,0.10229463604624701,0.0
-0.026064905651200492,0.05937177650592047,0.1022895398485112,0.0
-0.026054176813861945,0.05932188741229623,0.10229865936024897,0.0
-0.02604210687185608,0.05934441797070718,0.10230456022078517,0.0
-0.026033255581051778,0.05929801574921796,0.10237215189601802,0.0
-0.026034596685719096,0.05936372987791656,0.10237402944255226,0.0
-0.02604881239519267,0.05938170068045863,0.10234908489574014,0.0
-0.026060077674398146,0.059325910726298184,0.10232923654666383,0.0
-0.026076707372272894,0.05927012077213774,0.1022814932205073,0.0
-0.026066783197734738,0.05936426631978349,0.10233889250026852,0.0
-0.02606329632559971,0.059333957354302094,0.102331650535065,0.0
-0.02604800773239228,0.05946994536756818,0.1023855629426912,0.0
-0.026043447976523398,0.059406913448204215,0.10239092736136048,0.0
-0.026056590802263118,0.05935917012204768,0.10236276416334679,0.0
-0.026061150558132,0.0593575607964469,0.10236383704708064,0.0
-0.026056590802263118,0.05928970090028059,0.10234077004680277,0.0
-0.02604371619745686,0.059309281028423436,0.10234103826773623,0.0
-0.02606544209306742,0.05945009701849187,0.10233916072120199,0.0
-0.02605310393012809,0.059344954412574105,0.10231314329065601,0.0
-0.02605095816266038,0.05932322851696355,0.10238153962868925,0.0
-0.02604720306959189,0.05929211488868176,0.10242821007111193,0.0
-0.0260552496975958,0.05934817306377567,0.10244591265272053,0.0
-0.026072415837337475,0.059388674424728685,0.10243142872231349,0.0
-0.0260552496975958,0.05935273281964455,0.10244188933871858,0.0
-0.026054713255728872,0.05929721108641757,0.10246334701339567,0.0
-0.026065978534934347,0.05932296029603008,0.10239924221029785,0.0
-0.026058468348797364,0.05933744422643712,0.10246066480406103,0.0
-0.026048544174259208,0.05927307120240584,0.10247353940886729,0.0
-0.026025745394914795,0.059392965959664104,0.10247756272286924,0.0
-0.026052835709194627,0.05925402751612992,0.10238153962868925,0.0
-0.026036742453186806,0.05934817306377567,0.10243786602471662,0.0
-0.02603406024385217,0.05936212055231578,0.10250036150221366,0.0
-0.026062223441865855,0.05934683195910835,0.1024520817341902,0.0
-0.02607482982573865,0.05937150828498701,0.1023619595005464,0.0
-0.02607214761640401,0.05932939759843321,0.10239039091949355,0.0
-0.026080194244407922,0.059214599038910756,0.10238744048922545,0.0
-0.026048275953325744,0.05928433648161131,0.10243572025724891,0.0
-0.026056590802263118,0.05937097184312008,0.10240970282670293,0.0
-0.026068124302402056,0.05928835979561327,0.10236625103548182,0.0
-0.02604800773239228,0.05928406826067785,0.10237617521001997,0.0
-0.026041838650922616,0.059335566679902876,0.10240782528016869,0.0
-0.026025745394914795,0.05936480276165042,0.10237268833788495,0.0
-0.026040497546255297,0.0592762898536074,0.10235418109347595,0.0
-0.026010993243574292,0.05933127514496746,0.10243303804791427,0.0
-0.026010456801707365,0.05936775319191852,0.10243572025724891,0.0
-0.026019039871578203,0.059292383109615224,0.1023855629426912,0.0
-0.02599114489449798,0.059257514388264945,0.10237054257041724,0.0
-0.02598819446422988,0.05948094242584019,0.1023472073492059,0.0
-0.026009652138906974,0.059377677366456674,0.10236249594241333,0.0
-0.026025745394914795,0.05927173009773852,0.10239897398936439,0.0
-0.026019844534378594,0.05932269207509662,0.10242418675710997,0.0
-0.026037547115987197,0.05930606237722187,0.10238744048922545,0.0
-0.026035133127586024,0.0592792402838755,0.10240862994296908,0.0
-0.026027086499582113,0.05932349673789701,0.10242311387337612,0.0
-0.026047471290525353,0.05946270340236466,0.10237295655881841,0.0
-0.026069465407069375,0.05934763662190874,0.10239495067536243,0.0
-0.026046666627724962,0.05939859859926684,0.10246415167619606,0.0
-0.02607563448853904,0.05938009135485785,0.10243920712938394,0.0
-0.026071879395470548,0.05937875025019053,0.10238395361709042,0.0
-0.026085558663077196,0.059328861156566284,0.1023863676054916,0.0
-0.02609306884921418,0.059331006924033994,0.10239790110563053,0.0
-0.026094946395748424,0.05940449945980304,0.10237349300068534,0.0
-0.026064369209333565,0.05940128080860148,0.10237537054721958,0.0
-0.026047739511458817,0.05940584056447036,0.10243142872231349,0.0
-0.02606624675586781,0.05932403317976394,0.1023914638032274,0.0
-0.026071611174537084,0.05920011510850372,0.10244886308298863,0.0
-0.026061150558132,0.05944526904168952,0.10245100885045634,0.0
-0.026067319639601665,0.05946860426290086,0.10242311387337612,0.0
-0.02608958197707915,0.0593036483888207,0.10249472886261092,0.0
-0.026107552779621217,0.05938679687819444,0.10246817499019802,0.0
-0.026099237930683843,0.059438831739286394,0.10241238503603757,0.0
-0.026085558663077196,0.05944285505328835,0.10249204665327628,0.0
-0.026090118418946078,0.05941308252967388,0.10247139364139958,0.0
-0.026109430326155463,0.05933288447056824,0.10241935878030763,0.0
-0.02611425830295781,0.05934093109857215,0.10247890382753656,0.0
-0.026097896826016525,0.05939189307593025,0.10254166752596706,0.0
-0.026098701488816916,0.059399671483000696,0.10246817499019802,0.0
-0.026085022221210268,0.05938974730846254,0.10248534112993969,0.0
-0.0260582001278639,0.05943588130901829,0.10245932369939371,0.0
-0.02610835744242161,0.05938974730846254,0.10243250160604735,0.0
-0.026092264186413788,0.05935702435457997,0.10251565009542109,0.0
-0.026094946395748424,0.059374190494321646,0.10250679880461679,0.0
-0.026096287500415743,0.05938009135485785,0.10248695045554047,0.0
-0.02610111547721809,0.059272802981472375,0.10243813424565008,0.0
-0.026099506151617307,0.05925992837666612,0.10238019852402193,0.0
-0.02608153534907524,0.059421397378611254,0.10240353374523327,0.0
-0.026091459523613397,0.05942461602981282,0.10244859486205517,0.0
-0.026111844314556636,0.05931491366802617,0.10242686896644461,0.0
-0.0261150629657582,0.05942676179728053,0.10243411093164813,0.0
-0.026103797686552726,0.05937392227338818,0.10241023926856986,0.0
-0.026090654860813006,0.059429444006615165,0.10245047240858941,0.0
-0.026077512035073285,0.05938035957579131,0.10249177843234282,0.0
-0.026100042593484234,0.05934602729630796,0.10247380762980075,0.0
-0.026108893884288536,0.059378482029257065,0.10244108467591818,0.0
-0.02609762860508306,0.05940369479700265,0.10249311953701014,0.0
-0.02608582688401066,0.05937714092458975,0.10252718359556003,0.0
-0.026095751058548815,0.059359438342981144,0.10248614579274008,0.0
-0.02609092308174647,0.05937150828498701,0.10241238503603757,0.0
-0.026080998907208313,0.05940771811100461,0.1024491313039221,0.0
-0.026085558663077196,0.05939725749459952,0.10248963266487511,0.0
-0.026102188360951944,0.059374190494321646,0.10243518381538198,0.0
-0.02609977437255077,0.05936560742445081,0.10247166186233304,0.0
-0.026098433267883452,0.05923256984145282,0.10246656566459723,0.0
-0.026100042593484234,0.0591566633172826,0.10247085719953265,0.0
-0.026079121360674067,0.05956087226401237,0.10249097376954243,0.0
-0.026095751058548815,0.059438027076486,0.10249365597887707,0.0
-0.026085558663077196,0.05940047614580109,0.10252316028155807,0.0
-0.0261121125354901,0.059352196377777625,0.1024247231989769,0.0
-0.026087167988677978,0.05943480842528444,0.10240514307083405,0.0
-0.02609092308174647,0.059403158355135724,0.1024579825947264,0.0
-0.026069465407069375,0.05939993970393416,0.10258833796838975,0.0
-0.026083412895609486,0.05937687270365628,0.10250545769994947,0.0
-0.02610567523308697,0.059362388773249244,0.1024483266411217,0.0
-0.026097092163216134,0.05939698927366606,0.1024815860368712,0.0
-0.026079657802540995,0.059386528657260976,0.1024963381882117,0.0
-0.026067319639601665,0.059434540204350975,0.10241721301283992,0.0
-0.02610701633775429,0.059379823133924384,0.10238878159389277,0.0
-0.026105943454020435,0.05935917012204768,0.10252637893275963,0.0
-0.026101383698151553,0.05938545577352712,0.10253791243289857,0.0
-0.026113721861090882,0.059403963017936115,0.10251618653728801,0.0
-0.0261209638262944,0.05941469185527466,0.10246549278086338,0.0
-0.02611291719829049,0.05930311194695377,0.1024697843157988,0.0
-0.02613169266363295,0.059287286911879414,0.10243572025724891,0.0
-0.02609306884921418,0.059486038623576,0.10254193574690053,0.0
-0.026077512035073285,0.059498645007448794,0.10251216322328606,0.0
-0.02609896970975038,0.059482551751440974,0.10249472886261092,0.0
-0.02609977437255077,0.05942112915767779,0.10256392986344455,0.0
-0.02608958197707915,0.05947477334437053,0.10257144004958153,0.0
-0.026088240872411832,0.05950427764705153,0.10254354507250131,0.0
-0.02611425830295781,0.059453583890626896,0.10249660640914517,0.0
-0.026113721861090882,0.05945626609996153,0.10253791243289857,0.0
-0.0261062116749539,0.05942783468101438,0.10253683954916472,0.0
-0.026127132907764066,0.05939430706433142,0.1025148454326207,0.0
-0.026115331186691664,0.059420056273943936,0.10248292714153852,0.0
-0.02610192014001848,0.05943588130901829,0.1024815860368712,0.0
-0.026130888000832558,0.05935112349404377,0.10244296222245243,0.0
-0.02609762860508306,0.05944231861142142,0.10250572592088293,0.0
-0.026103529465619262,0.059510983170388124,0.10243732958284969,0.0
-0.02613115622176602,0.05935970656391461,0.10244779019925478,0.0
-0.0261062116749539,0.05941174142500656,0.10247461229260114,0.0
-0.02610782100055468,0.05934763662190874,0.10235874084934483,0.0
-0.026104602349353117,0.059391624854996786,0.10246924787393187,0.0
-0.026073220500137866,0.05948496573984215,0.10255722434010796,0.0
-0.026093337070147642,0.05940664522727075,0.10253737599103165,0.0
-0.026097092163216134,0.05941871516927662,0.10256741673557958,0.0
-0.026098701488816916,0.059386528657260976,0.1025384488747655,0.0
-0.026068928965202447,0.0595251988798617,0.1025628569797107,0.0
-0.026120427384427474,0.05936158411044885,0.10249365597887707,0.0
-0.026111576093623173,0.059360243005781535,0.10254381329343477,0.0
-0.0261209638262944,0.05938679687819444,0.10251296788608645,0.0
-0.026122036710028256,0.059325910726298184,0.10254005820036628,0.0
-0.02611077143082278,0.05934683195910835,0.10249365597887707,0.0
-0.026103529465619262,0.05936587564538427,0.10254381329343477,0.0
-0.02611130787268971,0.05939564816899874,0.10252235561875768,0.0
-0.026129278675231776,0.059363193436049635,0.10245744615285947,0.0
-0.026117745175092837,0.059373385831521255,0.10254971415397098,0.0
-0.026119086279760156,0.05936882607565237,0.10262374313160695,0.0
-0.026121232047227865,0.05939108841312986,0.10262293846880656,0.0
-0.02612445069842943,0.059427298239147455,0.10261703760827036,0.0
-0.026118818058826692,0.05939564816899874,0.10254837304930366,0.0
-0.026156100768578144,0.05924034824852327,0.1025110903395522,0.0
-0.026119622721627083,0.05936694852911813,0.10267819198110008,0.0
-0.02610487057028658,0.05945546143716114,0.10262883932934276,0.0
-0.026102993023752335,0.059438295297419466,0.10260604054999835,0.0
-0.026119622721627083,0.05932617894723165,0.10257546336358349,0.0
-0.026117476954159374,0.059446878367290304,0.10259557993359326,0.0
-0.026126864686830602,0.0593487095056426,0.10260013968946215,0.0
-0.026161465187247417,0.05929211488868176,0.1026167693873369,0.0
-0.02615154101270926,0.059358097238313826,0.10259879858479483,0.0
-0.026110503209889318,0.05939564816899874,0.1026344719689455,0.0
-0.02611130787268971,0.059433199099683656,0.1026277664456089,0.0
-0.02612310959376211,0.05940637700633729,0.10254086286316667,0.0
-0.026121768489094793,0.05937150828498701,0.10263313086427818,0.0
-0.026110234988955854,0.05939913504113377,0.1027498069703349,0.0
-0.02609896970975038,0.05940530412260343,0.10267550977176544,0.0
-0.026105138791220044,0.05938089601765824,0.10261328251520187,0.0
-0.026078316697873676,0.05947048180943511,0.10268409284163628,0.0
-0.026085558663077196,0.05937016718031969,0.10266853602749539,0.0
-0.026103529465619262,0.0592762898536074,0.10266558559722729,0.0
-0.02607563448853904,0.05948496573984215,0.10266665848096114,0.0
-0.026088240872411832,0.0594624351814312,0.10266639026002768,0.0
-0.026109698547088927,0.0594232749251455,0.10267604621363237,0.0
-0.026079121360674067,0.05938921086659561,0.10268972548123902,0.0
-0.026072952279204403,0.059296942865484106,0.1026610258413584,0.0
-0.026042643313723007,0.05944419615795567,0.10265592964362259,0.0
-0.026036742453186806,0.0593811642385917,0.10270528229537991,0.0
-0.026036742453186806,0.059408254552871534,0.10274283322606484,0.0
-0.026011261464507756,0.059535927717200246,0.10279674563369104,0.0
-0.025994363545699544,0.05943722241368561,0.10275651249367149,0.0
-0.02599919152250189,0.05938840620379522,0.1026883843765717,0.0
-0.02601233434824161,0.05934549085444103,0.10270394119071259,0.0
-0.025992217778231835,0.059408522773805,0.10276134047047383,0.0
-0.0260042877202377,0.05938760154099483,0.10273639592366171,0.0
-0.026018503429711275,0.059366143866317736,0.10271440180711768,0.0
-0.026020649197178985,0.05936507098258388,0.10276643666820964,0.0
-0.026029232267049823,0.05937579981992243,0.10275436672620378,0.0
-0.026055786139462727,0.05931384078429232,0.1027149382489846,0.0
-0.026054713255728872,0.05931679121456042,0.10272673997005702,0.0
-0.02604076576718876,0.05948469751890868,0.10276402267980847,0.0
-0.026056590802263118,0.059428639343814774,0.10278065237768322,0.0
-0.026059273011597755,0.059414155413407735,0.10273961457486327,0.0
-0.026053372151061554,0.05941174142500656,0.10272942217939166,0.0
-0.026058736569730827,0.05940584056447036,0.10272352131885545,0.0
-0.026040229325321834,0.059460825855830415,0.10271735223738578,0.0
-0.026035401348519487,0.05937499515712204,0.10271654757458538,0.0
-0.026043447976523398,0.059327520051898966,0.10270742806284762,0.0
-0.026090118418946078,0.05946028941396349,0.10272298487698853,0.0
-0.026062759883732783,0.05940047614580109,0.10283724699464405,0.0
-0.026087167988677978,0.0592762898536074,0.10272218021418814,0.0
-0.02607053829080323,0.059336103121769804,0.10279755029649143,0.0
-0.02605900479066429,0.05938304178512595,0.10282008085490238,0.0
-0.02606195522093239,0.059379823133924384,0.1027940634243564,0.0
-0.026073756942004794,0.059301234400419525,0.10277126464501199,0.0
-0.02608234001187563,0.059332616249634776,0.1027704599822116,0.0
-0.026085022221210268,0.059290237342147514,0.10282464061077126,0.0
-0.026073756942004794,0.0592977475282845,0.10286219154145618,0.0
-0.026067319639601665,0.05943185799501634,0.10281713042463428,0.0
-0.026081803570008704,0.05939779393646645,0.10279379520342294,0.0
-0.026081267128141777,0.05935863368018075,0.10284073386677908,0.0
-0.026079657802540995,0.05934763662190874,0.10284395251798065,0.0
-0.026104334128419653,0.05940128080860148,0.10275758537740534,0.0
-0.026106479895887363,0.0593664120872512,0.10280318293609417,0.0
-0.02609172774454686,0.05937284938965433,0.10284824405291607,0.0
-0.02608448577934334,0.05941308252967388,0.10284073386677908,0.0
-0.026076975593206358,0.0593546103661788,0.1028420749714464,0.0
-0.026104334128419653,0.05921862235291271,0.10279647741275758,0.0
-0.0261062116749539,0.05924705377185986,0.10279540452902372,0.0
-0.026075902709472503,0.05937445871525511,0.10289974247214109,0.0
-0.02606544209306742,0.05946994536756818,0.10287318859972819,0.0
-0.026076170930405967,0.059439636402086785,0.10287640725092975,0.0
-0.0260582001278639,0.059460021193030024,0.10289169584413718,0.0
-0.02609977437255077,0.05934736840097528,0.10287050639039355,0.0
-0.02610567523308697,0.05937365405245472,0.10288659964640137,0.0
-0.026102188360951944,0.059356487912713043,0.10286755596012545,0.0
-0.026089045535212223,0.05933288447056824,0.10289732848373992,0.0
-0.026095751058548815,0.05937606804085589,0.1028656784135912,0.0
-0.026092800628280715,0.059488452611977174,0.10282866392477322,0.0
-0.026084754000276805,0.05941388719247427,0.1028029147151607,0.0
-0.026085558663077196,0.05939618461086567,0.10278306636608439,0.0
-0.02607563448853904,0.059408522773805,0.10271225603964997,0.0
-0.026080194244407922,0.05939564816899874,0.1027616086914073,0.0
-0.026090386639879542,0.059377677366456674,0.1028066698082292,0.0
-0.02607563448853904,0.05938626043632751,0.10274336966793177,0.0
-0.02606195522093239,0.05941764228554276,0.10280747447102959,0.0
-0.026091459523613397,0.0593302022612336,0.10285226736691802,0.0
-0.026082071790942168,0.05933342091243517,0.10282598171543858,0.0
-0.026085290442143732,0.05926663390000271,0.10278172526141707,0.0
-0.026062759883732783,0.059494353472513375,0.10282115373863623,0.0
-0.026066783197734738,0.05947370046063667,0.10280908379663037,0.0
-0.026082608232809095,0.059404767680736506,0.1027852121335521,0.0
-0.026054713255728872,0.05940128080860148,0.10281391177343271,0.0
-0.02607214761640401,0.05928272715601053,0.10277501973808048,0.0
-0.026067319639601665,0.05937311761058779,0.10276643666820964,0.0
-0.026060882337198537,0.0594291757856817,0.1027940634243564,0.0
-0.02608073068627485,0.0593331526915017,0.10273639592366171,0.0
-0.02605605436039619,0.05936426631978349,0.10277770194741512,0.0
-0.02604586196492457,0.059369094296585836,0.10284690294824875,0.0
-0.02603620601131988,0.059391624854996786,0.10282008085490238,0.0
-0.026052031046394235,0.059452779227826505,0.10277233752874584,0.0
-0.026104334128419653,0.059335566679902876,0.10272405776072238,0.0
-0.026075098046672112,0.059360243005781535,0.10286111865772232,0.0
-0.026081267128141777,0.05937284938965433,0.10284153852957947,0.0
-0.02608743620961144,0.059445537262622986,0.10279728207555797,0.0
-0.02609682394228267,0.05942568891354667,0.10279433164528987,0.0
-0.026089045535212223,0.05939028375032947,0.10287694369279668,0.0
-0.026087167988677978,0.05935621969177958,0.10284904871571646,0.0
-0.02609762860508306,0.05935031883124338,0.10279004011035445,0.0
-0.026091191302679933,0.059401012587668015,0.10278145704048361,0.0
-0.026121232047227865,0.05947262757690282,0.10279594097089065,0.0
-0.026113990082024346,0.059360243005781535,0.1028479758319826,0.0
-0.026102993023752335,0.05935380570337841,0.10282517705263819,0.0
-0.02610487057028658,0.05929586998175025,0.10284636650638182,0.0
-0.026130888000832558,0.05943936818115332,0.10284019742491216,0.0
-0.026129010454298312,0.05939859859926684,0.10283992920397869,0.0
-0.026137325303235686,0.05945224278595958,0.10289571915813914,0.0
-0.026164147396582054,0.059396721052732596,0.10284904871571646,0.0
-0.026167634268717082,0.05933851711017098,0.10282893214570668,0.0
-0.026129010454298312,0.059401012587668015,0.1028664830763916,0.0
-0.02615502788484429,0.05931786409829427,0.10278387102888478,0.0
-0.026143226163771887,0.05932108274949584,0.10278843078475366,0.0
-0.02613330198923373,0.059364534540716954,0.10283456478530942,0.0
-0.026119622721627083,0.05939242951779718,0.10285950933212154,0.0
-0.026113185419223955,0.059390015529396004,0.10278869900568713,0.0
-0.026138934628836468,0.05936077944764846,0.10276429090074193,0.0
-0.026124718919362893,0.05941361897154081,0.102848780494783,0.0
-0.026130619779899094,0.05935487858711226,0.10284422073891411,0.0
-0.02613464309390105,0.05929989329575221,0.10287318859972819,0.0
-0.026154759663910825,0.059221036341313885,0.102811766005965,0.0
-0.02615207745457619,0.05924034824852327,0.10280050072675953,0.0
-0.026147249477773842,0.05939993970393416,0.10282303128517048,0.0
-0.026141616838171105,0.05949167126317874,0.10281283888969886,0.0
-0.026141616838171105,0.05937204472685394,0.10276777777287696,0.0
-0.026122841372828647,0.05943427198341751,0.10276777777287696,0.0
-0.02612525536122982,0.05939403884339796,0.10275436672620378,0.0
-0.026111576093623173,0.05942381136701243,0.10283778343651098,0.0
-0.02613249732643334,0.059434540204350975,0.10277421507528009,0.0
-0.026170852919918646,0.05938921086659561,0.10270474585351298,0.0
-0.026145908373106524,0.05936989895938623,0.1028664830763916,0.0
-0.026123377814695575,0.05945438855342729,0.10290242468147573,0.0
-0.02613330198923373,0.059425152471679746,0.10285575423905305,0.0
-0.026138666407903004,0.05941871516927662,0.10289571915813914,0.0
-0.026153955001110434,0.059380627796724775,0.10287318859972819,0.0
-0.02612230493096172,0.05941174142500656,0.10288606320453444,0.0
-0.026133033768300267,0.05943775885555254,0.10288659964640137,0.0
-0.02614483548937267,0.05938035957579131,0.10286621485545813,0.0
-0.026143762605638814,0.059437490634619075,0.10290001069307456,0.0
-0.026159319419779708,0.05943909996021986,0.10286487375079081,0.0
-0.026173803350186747,0.059342808645106396,0.10283697877371059,0.0
-0.026159855861646635,0.059298283970151425,0.1028686288438593,0.0
-0.02615663721044507,0.05936077944764846,0.10289357339067143,0.0
-0.026132229105499876,0.05953753704280103,0.10291342173974774,0.0
-0.026123914256562502,0.0594321262159498,0.1029018882396088,0.0
-0.026134374872967586,0.05942381136701243,0.10291047130947964,0.0
-0.02614134861723764,0.059404767680736506,0.10285924111118808,0.0
-0.02615797831511239,0.05942166559954472,0.10282678637823897,0.0
-0.02615958764071317,0.05945894830929617,0.10289866958840724,0.0
-0.026133033768300267,0.05943990462302025,0.10302258765966746,0.0
-0.026151809233642725,0.05941817872740969,0.1029890600429845,0.0
-0.026149127024308088,0.059395916389932205,0.10295767819376925,0.0
-0.026149127024308088,0.05941764228554276,0.10297377144977707,0.0
-0.026155296105777753,0.05940744989007114,0.1029469493564307,0.0
-0.026167902489650546,0.05938921086659561,0.1029136899606812,0.0
-0.02616978003618479,0.05933663956363673,0.10290242468147573,0.0
-0.02616736604778362,0.05939323418059757,0.10292790567015478,0.0
-0.02616387917564859,0.0593723129477874,0.10289706026280646,0.0
-0.02618211819912412,0.05939779393646645,0.10288794075106869,0.0
-0.026201966548200433,0.059386528657260976,0.10290805732107847,0.0
-0.02620250299006736,0.05938089601765824,0.10292227303055204,0.0
-0.02619955255979926,0.05933958999390483,0.10286111865772232,0.0
-0.02621564581580708,0.05927468052800662,0.10286299620425657,0.0
-0.02619660212953116,0.05948979371664449,0.10296438371710584,0.0
-0.026181045315390266,0.05936855785471891,0.10286728773919199,0.0
-0.026183191082857975,0.059301234400419525,0.10292656456548746,0.0
-0.02618426396659183,0.05944821947195762,0.1030193690084659,0.0
-0.02619660212953116,0.059377677366456674,0.10298986470578489,0.0
-0.026186677954993003,0.05942568891354667,0.10300059354312344,0.0
-0.026181045315390266,0.05938196890139209,0.10291583572814891,0.0
-0.02620035722259965,0.05935621969177958,0.10293943917029372,0.0
-0.026196870350464623,0.05939618461086567,0.10296089684497081,0.0
-0.026196065687664232,0.05937740914552321,0.1029254916817536,0.0
-0.026197675013265014,0.05939323418059757,0.10292871033295517,0.0
-0.026219400908875572,0.05937445871525511,0.10290269290240919,0.0
-0.026210013176204344,0.05934817306377567,0.10290001069307456,0.0
-0.02620035722259965,0.05937955491299092,0.1029380980656264,0.0
-0.02620035722259965,0.059412009645940025,0.1029439989261626,0.0
-0.026241126804486134,0.05932805649376589,0.10286755596012545,0.0
-0.02626124337449591,0.05911803950286383,0.10284904871571646,0.0
-0.026242736130086916,0.05940503590166997,0.10293192898415673,0.0
-0.02620894029247049,0.05945090168129226,0.10293729340282601,0.0
-0.02622369244381099,0.05926502457440193,0.10284636650638182,0.0
-0.02625105097902429,0.059335566679902876,0.10284583006451489,0.0
-0.02624380901382077,0.059569455333883206,0.1028568271227869,0.0
-0.026237371711417642,0.05942837112288131,0.10282490883170473,0.0
-0.02622422888567792,0.05939323418059757,0.10286326442519003,0.0
-0.02623495772301647,0.05945090168129226,0.10284529362264797,0.0
-0.026215109373940153,0.05949542635624723,0.10284073386677908,0.0
-0.02620840385060356,0.05946136229769734,0.10282008085490238,0.0
-0.0262199373507425,0.05939269773873064,0.10275463494713724,0.0
-0.026202234769133897,0.05943051689034902,0.10275034341220182,0.0
-0.02619740679233155,0.05943936818115332,0.10278923544755406,0.0
-0.02621913268794211,0.059428102901947846,0.102782261703284,0.0
-0.02623656704861725,0.059409863878472316,0.10275087985406875,0.0
-0.026231739071814905,0.059419251611143545,0.10281230244783193,0.0
-0.026253733188358927,0.059417105843675835,0.10278467569168517,0.0
-0.026248368769689653,0.059391624854996786,0.10276321801700808,0.0
-0.02625480607209278,0.05934146754043908,0.1027645591216754,0.0
-0.0262502463162239,0.059516079368123934,0.10278118881955015,0.0
-0.02625480607209278,0.059461630518630806,0.10277501973808048,0.0
-0.026280018839838368,0.059297479307351034,0.10275651249367149,0.0
-0.02627787307237066,0.05930820814468958,0.10276134047047383,0.0
-0.026279214177037977,0.05950776451918656,0.10278333458701785,0.0
-0.02627867773517105,0.059482551751440974,0.10272673997005702,0.0
-0.026274654421169094,0.0594203244948774,0.10271681579551885,0.0
-0.026268753560632893,0.059403158355135724,0.10273880991206288,0.0
-0.026293161665578088,0.059368289633785445,0.10270420941164606,0.0
-0.026292893444644624,0.059371240064053546,0.10270474585351298,0.0
-0.026283237491039932,0.05940342657606919,0.10264117749228209,0.0
-0.02628887013064267,0.05933342091243517,0.10262401135254041,0.0
-0.026256415397693564,0.05935836545924729,0.10274041923766367,0.0
-0.026243272571953843,0.059359438342981144,0.10270930560938187,0.0
-0.026249173432490044,0.059355951470846116,0.10269535812084175,0.0
-0.026280555281705295,0.059351391714977234,0.1027186933420531,0.0
-0.026285651479441105,0.05929935685388528,0.10269750388830946,0.0
-0.02629611209584619,0.05927468052800662,0.10263715417828013,0.0
-0.026284846816640714,0.059462971623298125,0.10268087419043471,0.0
-0.026294234549311943,0.05939108841312986,0.10269884499297678,0.0
-0.026291552339977306,0.059412814308740416,0.10265324743428796,0.0
-0.02627787307237066,0.05944795125102416,0.1026256206781412,0.0
-0.026276263746769876,0.059332616249634776,0.10262508423627427,0.0
-0.026294234549311943,0.059362388773249244,0.10268516572537013,0.0
-0.026287260805041887,0.05945760720462885,0.10268892081843863,0.0
-0.026300403630781607,0.05942407958794589,0.10258243710785354,0.0
-0.0263100595843863,0.05940584056447036,0.1025768044682508,0.0
-0.026287260805041887,0.05936212055231578,0.10258860618932321,0.0
-0.026267948897832502,0.059428639343814774,0.10263983638761477,0.0
-0.026275459083969485,0.059412009645940025,0.10256848961931343,0.0
-0.026300135409848144,0.05936802141285198,0.10258324177065394,0.0
-0.026296648537713116,0.05939189307593025,0.10259557993359326,0.0
-0.026284846816640714,0.059391624854996786,0.10259262950332516,0.0
-0.02624890521155658,0.05941361897154081,0.10254327685156785,0.0
-0.026252123862758145,0.0594114732040731,0.1025199416303565,0.0
-0.026256683618627027,0.05941361897154081,0.10258726508465589,0.0
-0.026276800188636804,0.059327520051898966,0.10256956250304729,0.0
-0.026274922642102558,0.05934388152884025,0.10256044299130952,0.0
-0.02627143576996753,0.05951232427505544,0.10254837304930366,0.0
-0.026261779816362837,0.05943588130901829,0.10258967907305706,0.0
-0.02627867773517105,0.05944070928582064,0.1025059941418164,0.0
-0.026312741793720937,0.05938384644792634,0.10249687463007863,0.0
-0.02631435111932172,0.05945760720462885,0.10262696178280852,0.0
-0.026332858363730713,0.05929211488868176,0.10252852470022734,0.0
-0.026334467689331495,0.059291042004947905,0.10251162678141913,0.0
-0.02631140068905362,0.05954048747306913,0.1025169912000884,0.0
-0.02632454351479334,0.05939564816899874,0.10246817499019802,0.0
-0.026317569770523283,0.05938545577352712,0.10251296788608645,0.0
-0.026307645595985127,0.0593811642385917,0.10250840813021757,0.0
-0.02629047945624345,0.059420056273943936,0.10250116616501405,0.0
-0.02630871847971898,0.0593664120872512,0.10246415167619606,0.0
-0.026314619340255183,0.059374726936188574,0.10244001179218433,0.0
-0.026293429886511552,0.05943588130901829,0.10247729450193578,0.0
-0.02628887013064267,0.05938089601765824,0.10254220396783399,0.0
-0.02631730154958982,0.05936158411044885,0.10248373180433891,0.0
-0.026327225724127976,0.059442586832354885,0.10248507290900623,0.0
-0.026322129526392166,0.05941978805301047,0.10254488617716863,0.0
-0.026330712596263003,0.05941227786687349,0.10253603488636433,0.0
-0.02633849100333345,0.05939108841312986,0.10250116616501405,0.0
-0.02634063677080116,0.059369630738452764,0.10247058897859919,0.0
-0.02631810621239021,0.059382773564192484,0.10254783660743673,0.0
-0.026308986700652445,0.05939323418059757,0.10254569083996902,0.0
-0.026350292724405852,0.05934468619164064,0.10247139364139958,0.0
-0.026343855422002724,0.05920977106210841,0.10247675806006885,0.0
-0.02632105664265831,0.059362388773249244,0.10250277549061483,0.0
-0.02633044437532954,0.05950293654238421,0.10250948101395142,0.0
-0.026339563887067305,0.05935890190111422,0.10248909622300818,0.0
-0.026314082898388255,0.05940235369233533,0.10249151021140936,0.0
-0.02634868339880507,0.059395111727131814,0.10242713718737807,0.0
-0.026332858363730713,0.05945251100689304,0.10246817499019802,0.0
-0.026367190643214064,0.05938089601765824,0.10240192441963249,0.0
-0.026375237271217974,0.059346295517241424,0.10243035583857964,0.0
-0.026336881677732668,0.059370435401253155,0.10254622728183595,0.0
-0.026332053700930322,0.05926234236506729,0.10250545769994947,0.0
-0.02632400707292641,0.05940932743660539,0.10249499708354438,0.0
-0.026331517259063394,0.05943909996021986,0.10246066480406103,0.0
-0.026346269410403897,0.059380627796724775,0.10244108467591818,0.0
-0.026339563887067305,0.05939993970393416,0.1024601283621941,0.0
-0.026323738851992948,0.05942676179728053,0.10250545769994947,0.0
-0.026326957503194512,0.05943132155314941,0.10250170260688098,0.0
-0.026335808793998813,0.059383578226992875,0.10246146946686142,0.0
-0.026352170270940098,0.05938921086659561,0.10244993596672249,0.0
-0.02635458425934127,0.05936426631978349,0.10239656000096321,0.0
-0.026340904991734623,0.05936212055231578,0.10243303804791427,0.0
-0.02632239774732563,0.059429444006615165,0.102457177931926,0.0
-0.026338222782399986,0.05939430706433142,0.10240594773363444,0.0
-0.026361289782677863,0.05938384644792634,0.1024121168151041,0.0
-0.026337954561466523,0.0595458518917384,0.10244054823405126,0.0
-0.026356998247742444,0.059409059215671925,0.10242204098964226,0.0
-0.026341709654535014,0.05941764228554276,0.10246924787393187,0.0
-0.026362094445478254,0.05933878533110444,0.10243035583857964,0.0
-0.026378992364286466,0.059317327656427346,0.10241050748950332,0.0
-0.026365849538546746,0.059505886972652314,0.10241989522217455,0.0
-0.026370677515349092,0.05943614952995176,0.10243303804791427,0.0
-0.026374700829351047,0.05941308252967388,0.10240299730336634,0.0
-0.02637845592241954,0.059418446948343154,0.10233674673280081,0.0
-0.026394012736560432,0.05939242951779718,0.10242391853617651,0.0
-0.02640125470176395,0.05935353748244494,0.10238341717522349,0.0
-0.026379797027086857,0.05934817306377567,0.1024040701871002,0.0
-0.026382479236421494,0.059336103121769804,0.10237939386122154,0.0
-0.02639615850402814,0.059360243005781535,0.10233728317466774,0.0
-0.026412519980969426,0.0593065988190888,0.1022865894182431,0.0
-0.026415202190304063,0.05928701869094595,0.10238449005895735,0.0
-0.02638516144575613,0.05932564250536472,0.10236812858201606,0.0
-0.026399377155229706,0.05934388152884025,0.10232709077919612,0.0
-0.026368531747881382,0.05940718166913768,0.10235069422134092,0.0
-0.026370945736282556,0.05946994536756818,0.10233942894213545,0.0
-0.026359144015210154,0.059369630738452764,0.10237027434948377,0.0
-0.02637711481775222,0.05930445305162109,0.10229651359278126,0.0
-0.026376041934018365,0.05929667464455064,0.10229114917411199,0.0
-0.026367995306014455,0.05924544444625908,0.10227988389490651,0.0
-0.02634734229413775,0.05946404450703198,0.1023324551978654,0.0
-0.02635753468960937,0.059406108785403824,0.1022895398485112,0.0
-0.026363435550145572,0.05940771811100461,0.10221336510340752,0.0
-0.02637926058521993,0.05933663956363673,0.10229785469744858,0.0
-0.026391866969092723,0.05930150262135299,0.10230911997665405,0.0
-0.026396963166828533,0.059353001040578016,0.10228766230197696,0.0
-0.02637926058521993,0.05932188741229623,0.10230429199985171,0.0
-0.026390525864425404,0.0593006979585526,0.10225788977836249,0.0
-0.0263698728525487,0.05936292521511617,0.102235627440885,0.0
-0.026399913597096633,0.05936560742445081,0.10223455455715115,0.0
-0.026402327585497806,0.05938733332006137,0.10224555161542316,0.0
-0.026360485119877472,0.059374726936188574,0.10223911431302003,0.0
-0.026365581317613282,0.05932644716816511,0.102206123138204,0.0
-0.026376041934018365,0.05928835979561327,0.10225386646436053,0.0
-0.026392135190026186,0.05925134530679528,0.10221980240581065,0.0
-0.026397767829628924,0.059351391714977234,0.10222436216167953,0.0
-0.026389721201625013,0.05934951416844299,0.10221470620807484,0.0
-0.026404205132032052,0.05934254042417293,0.10216669466098484,0.0
-0.026402327585497806,0.05939564816899874,0.1021551611608459,0.0
-0.026408228446034007,0.05927897206294204,0.10215757514924707,0.0
-0.026413324643769817,0.05942998044848209,0.10220397737073629,0.0
-0.026417616178705236,0.05944607370448991,0.1021846654635269,0.0
-0.02640688734136669,0.05943266265781673,0.10207120800867177,0.0
-0.026414397527503672,0.059302575505086844,0.10206718469466981,0.0
-0.026403668690165125,0.05938250534325902,0.10220934178940556,0.0
-0.026389184759758086,0.059358097238313826,0.1021677675447187,0.0
-0.026402059364564343,0.05933663956363673,0.102139604346705,0.0
-0.02640125470176395,0.059354342145245334,0.10211439157895942,0.0
-0.026373091503750265,0.059438831739286394,0.10212726618376568,0.0
-0.026379797027086857,0.059379286692057456,0.10210473562535473,0.0
-0.026393476294693505,0.059442586832354885,0.1021699133121864,0.0
-0.026396426724961605,0.059369094296585836,0.10211197759055825,0.0
-0.026402864027364734,0.05934897772657606,0.1021825196960592,0.0
-0.026384625003889203,0.059372581168720864,0.10220558669633707,0.0
-0.026377383038685684,0.05940584056447036,0.10217822816112378,0.0
-0.026399108934296242,0.05934361330790679,0.10210098053228624,0.0
-0.02640393691109859,0.05935380570337841,0.10210849071842322,0.0
-0.02640179114363088,0.059438831739286394,0.10216669466098484,0.0
-0.026376846596818757,0.059462971623298125,0.10223723676648579,0.0
-0.02639669494589507,0.05932000986576198,0.10216615821911791,0.0
-0.026406082678566298,0.05941522829714159,0.10210393096255434,0.0
-0.02637845592241954,0.05950910562385388,0.10218815233566193,0.0
-0.02640393691109859,0.059412009645940025,0.10220800068473825,0.0
-0.02642003016710641,0.05937284938965433,0.10217500950992221,0.0
-0.026367190643214064,0.0594439279370222,0.10213826324203769,0.0
-0.02637791948055261,0.0594262253554136,0.10209400678801618,0.0
-0.0263669224222806,0.059435344867151366,0.10212672974189875,0.0
-0.026374700829351047,0.059417910506476226,0.10211921955576177,0.0
-0.026380869910820712,0.05940530412260343,0.1021012487532197,0.0
-0.02639830427149585,0.05931786409829427,0.10207013512493791,0.0
-0.026394817399360823,0.05938304178512595,0.10203902149665613,0.0
-0.026367995306014455,0.05943427198341751,0.10208998347401423,0.0
-0.02638435678295574,0.05938813798286176,0.10209454322988311,0.0
-0.026382747457354958,0.05942890756474824,0.10205431008986356,0.0
-0.026408228446034007,0.05938089601765824,0.10210151697415316,0.0
-0.02640983777163479,0.059336103121769804,0.10212592507909836,0.0
-0.026406082678566298,0.05934656373817489,0.10208730126467959,0.0
-0.026399377155229706,0.05935273281964455,0.10207523132267372,0.0
-0.026409569550701326,0.059219695236646566,0.1020081760893078,0.0
-0.026402327585497806,0.05929345599334908,0.10199530148450155,0.0
-0.0263728232828168,0.05950776451918656,0.10210849071842322,0.0
-0.026377383038685684,0.05944365971608874,0.1020658435900025,0.0
-0.026362362666411718,0.05943346732061712,0.1021130504742921,0.0
-0.026409301329767862,0.059358097238313826,0.10206772113653674,0.0
-0.02642163949270719,0.059374190494321646,0.10210473562535473,0.0
-0.0264149339693706,0.05940369479700265,0.10212136532322948,0.0
-0.026422444155507582,0.0593634616569831,0.10210875893935668,0.0
-0.026389989422558477,0.059413350750607344,0.10211787845109445,0.0
-0.02641144709723557,0.0593095492493569,0.10211492802082635,0.0
-0.026419493725239482,0.05932269207509662,0.10215757514924707,0.0
-0.0264208348299068,0.059364534540716954,0.10210795427655629,0.0
-0.026433441213779593,0.05937740914552321,0.10214818741657584,0.0
-0.02644417005111814,0.05936855785471891,0.10214711453284199,0.0
-0.026446047597652386,0.059300429737619134,0.10208837414841344,0.0
-0.02643826919058194,0.05929157844681483,0.10207228089240562,0.0
-0.026418957283372554,0.059391624854996786,0.10211170936962478,0.0
-0.026421371271773728,0.05938760154099483,0.10208596016001227,0.0
-0.026430759004444956,0.05935970656391461,0.10202131891504752,0.0
-0.0264208348299068,0.05929935685388528,0.10207791353200836,0.0
-0.026426199248576074,0.0592408846903902,0.10210232163695356,0.0
-0.026429954341644565,0.059274948748940084,0.1020569922991982,0.0
-0.026393476294693505,0.05948657506544293,0.10212351109069719,0.0
-0.02639749960869546,0.05949542635624723,0.10216562177725098,0.0
-0.026412251760035962,0.059426493576347064,0.10214872385844277,0.0
-0.02639535384122775,0.05944124572768757,0.10213209416056802,0.0
-0.02641868906243909,0.05940879099473846,0.10204465413625886,0.0
-0.026420566608973337,0.05939135663406332,0.10210849071842322,0.0
-0.02640688734136669,0.059408254552871534,0.10215757514924707,0.0
-0.02641868906243909,0.059336103121769804,0.10210017586948585,0.0
-0.026412251760035962,0.05940369479700265,0.1021337034861688,0.0
-0.026419225504306018,0.05942461602981282,0.1020982983229516,0.0
-0.02643987851618272,0.05941522829714159,0.10209668899735082,0.0
-0.026425394585775683,0.05941361897154081,0.10205833340386551,0.0
-0.026436391644047694,0.05944634192542338,0.10205726052013166,0.0
-0.0264296861207111,0.05947772377463863,0.10205162788052892,0.0
-0.026416811515904845,0.059486306844509465,0.10204572701999272,0.0
-0.02640393691109859,0.05945814364649578,0.10206396604346825,0.0
-0.026413861085636745,0.05933154336590092,0.10204545879905925,0.0
-0.026420298388039873,0.05927950850480897,0.10197920822849373,0.0
-0.026411715318169035,0.059529222193863654,0.10205216432239585,0.0
-0.026422444155507582,0.059462971623298125,0.10213879968390462,0.0
-0.02643397765564652,0.059429444006615165,0.10210688139282244,0.0
-0.026424053481108364,0.05948389285610829,0.10213289882336841,0.0
-0.02645060735352127,0.059448487692891086,0.10212324286976372,0.0
-0.02642003016710641,0.05943185799501634,0.10215650226551322,0.0
-0.026410105992568253,0.05946055763489695,0.10212056066042909,0.0
-0.026443097167384286,0.05947370046063667,0.10207362199707294,0.0
-0.026430759004444956,0.059458680088362706,0.10209186102054847,0.0
-0.026418957283372554,0.05947477334437053,0.10210473562535473,0.0
-0.026409301329767862,0.05945733898369539,0.10210473562535473,0.0
-0.026418420841505627,0.059428102901947846,0.10210929538122361,0.0
-0.026426735690443,0.0594173740646093,0.1021168055673606,0.0
-0.026454898888456688,0.059409059215671925,0.10210580850908858,0.0
-0.02644417005111814,0.05943990462302025,0.10209776188108467,0.0
-0.026431295446311884,0.059444732599822594,0.10208917881121383,0.0
-0.02643317299284613,0.05942971222754863,0.10211948777669523,0.0
-0.026424321702041828,0.0593752633780555,0.10214309121884003,0.0
-0.026458385760591716,0.0592977475282845,0.10203070664771875,0.0
-0.02644631581858585,0.05919662823636869,0.10212941195123339,0.0
-0.026426199248576074,0.05947477334437053,0.10214470054444082,0.0
-0.026439342074315794,0.059510446728521196,0.102128607288433,0.0
-0.026452484900055515,0.05942193382047818,0.10212592507909836,0.0
-0.02644765692325317,0.05929882041201835,0.10204948211306121,0.0
-0.026436391644047694,0.05947450512343706,0.10205082321772853,0.0
-0.02644765692325317,0.059416301180875444,0.10210205341602009,0.0
-0.026454630667523224,0.059379286692057456,0.1021640124516502,0.0
-0.026453826004722833,0.05937445871525511,0.10214496876537428,0.0
-0.026462140853660207,0.05938250534325902,0.10213021661403378,0.0
-0.026472869690998754,0.05938813798286176,0.10214738275377545,0.0
-0.02648923116794004,0.059372581168720864,0.102128607288433,0.0
-0.0264835985283373,0.05934334508697332,0.10212592507909836,0.0
-0.026490304051673894,0.059354342145245334,0.10208596016001227,0.0
-0.02649432736567585,0.05931330434242539,0.10210178519508663,0.0
-0.02647850233060149,0.0593634616569831,0.10211653734642713,0.0
-0.026487353621405793,0.05933422557523556,0.10213128949776763,0.0
-0.02649003583074043,0.059233374504253214,0.1021433594397735,0.0
-0.026492449819141603,0.059224791434382376,0.10217983748672456,0.0
-0.026492718040075067,0.05931491366802617,0.10215167428871087,0.0
-0.02649513202847624,0.05940423123886958,0.10216481711445059,0.0
-0.02650317865648015,0.05930016151668567,0.10214791919564238,0.0
-0.02651819902875412,0.05927441230707316,0.10208166862507685,0.0
-0.02650237399367976,0.059438027076486,0.10214550520724121,0.0
-0.02649727779594395,0.05930981747029036,0.10214765097470892,0.0
-0.02650237399367976,0.05934173576137254,0.10210554028815512,0.0
-0.026496741354077022,0.05940503590166997,0.10210902716029015,0.0
-0.02648574429580501,0.05943614952995176,0.10214604164910814,0.0
-0.026500764668078977,0.05937579981992243,0.10213021661403378,0.0
-0.026492449819141603,0.05937579981992243,0.10214094545137233,0.0
-0.02648279386553691,0.05941522829714159,0.1021168055673606,0.0
-0.02649137693540775,0.05941066854127271,0.1021728637424545,0.0
-0.02649137693540775,0.05943909996021986,0.10214738275377545,0.0
-0.0265050562030144,0.059446878367290304,0.10209910298575199,0.0
-0.026499155342478195,0.05939779393646645,0.1021551611608459,0.0
-0.026521417679955684,0.05940128080860148,0.102128607288433,0.0
-0.02653777915689697,0.05933798066830405,0.10214952852124316,0.0
-0.02651176172635099,0.05937392227338818,0.10215301539337819,0.0
-0.026538852040630823,0.05925617328359763,0.1021041991834878,0.0
-0.026536169831296186,0.059443391495155276,0.10213209416056802,0.0
-0.026510420621683673,0.05949006193757796,0.10218386080072651,0.0
-0.026506933749548645,0.059408522773805,0.102235627440885,0.0
-0.026497009575010486,0.059257514388264945,0.10222302105701221,0.0
-0.026525709214891103,0.05932296029603008,0.10216025735858171,0.0
-0.026513371051951774,0.05943400376248405,0.1021817150332588,0.0
-0.026492449819141603,0.059428102901947846,0.1022474291619574,0.0
-0.026499691784345122,0.059360511226715,0.10219110276593003,0.0
-0.02650398331928054,0.05933342091243517,0.10222275283607875,0.0
-0.02653938848249775,0.0593272518309655,0.10227961567397305,0.0
-0.026542607133699315,0.05935782901738036,0.10219700362646623,0.0
-0.0265168579240868,0.0593870650991279,0.10228176144144076,0.0
-0.026509884179816746,0.059379286692057456,0.10227988389490651,0.0
-0.02653134185449384,0.05935621969177958,0.10227076438316875,0.0
-0.02651524859848602,0.059329665819366675,0.10233272341879886,0.0
-0.02651605326128641,0.059366143866317736,0.10229651359278126,0.0
-0.026500496447145513,0.059361047668581926,0.10230268267425092,0.0
-0.026501837551812832,0.059319473423895056,0.10233191875599847,0.0
-0.02649808245874434,0.05934549085444103,0.10232387212799456,0.0
-0.026517930807820656,0.0592526864114626,0.10226379063889869,0.0
-0.026524636331157248,0.05927602163267394,0.10226271775516484,0.0
-0.02652624565675803,0.05937955491299092,0.10231233862785562,0.0
-0.02649808245874434,0.05940503590166997,0.10233674673280081,0.0
-0.02652919608702613,0.05937901847112399,0.10229383138344662,0.0
-0.026523563447423393,0.059367484970985054,0.10223723676648579,0.0
-0.026527318540491885,0.05926877966747042,0.10228766230197696,0.0
-0.02654368001743317,0.05927897206294204,0.10230107334865014,0.0
-0.02653268295916116,0.05924839487652718,0.10225949910396327,0.0
-0.026534024063828477,0.059412814308740416,0.10221846130114333,0.0
-0.026536169831296186,0.059350050610309915,0.10217930104485763,0.0
-0.026510688842617137,0.05938894264566215,0.10225654867369517,0.0
-0.026511493505417528,0.059282995376943995,0.10225681689462864,0.0
-0.026523831668356857,0.059291846667748296,0.10223321345248383,0.0
-0.026517930807820656,0.059360243005781535,0.10221685197554255,0.0
-0.02648628073767194,0.059391624854996786,0.10222731259194763,0.0
-0.026512566389151383,0.059302039063219916,0.10218225147512573,0.0
-0.026519271912487975,0.05936212055231578,0.10228095677864037,0.0
-0.026514175714752165,0.05941308252967388,0.10223750498741925,0.0
-0.026515785040352947,0.059344954412574105,0.10222543504541338,0.0
-0.02650720197048211,0.05927977672574243,0.1022895398485112,0.0
-0.026531610075427304,0.05921835413197925,0.10227022794130182,0.0
-0.026532951180094622,0.059460825855830415,0.10225628045276171,0.0
-0.026544752901167024,0.05939698927366606,0.10226164487143098,0.0
-0.026528123203292276,0.05940128080860148,0.10229168561597891,0.0
-0.026536169831296186,0.05938089601765824,0.10225225713875975,0.0
-0.026559236831574063,0.05932322851696355,0.10219995405673434,0.0
-0.026549849098902834,0.059366143866317736,0.10223455455715115,0.0
-0.02655762750597328,0.05931625477269349,0.10221604731274216,0.0
-0.026565137692110264,0.05927682629547433,0.10217018153311987,0.0
-0.0265589686106406,0.059374190494321646,0.10208569193907881,0.0
-0.026554945296638644,0.05937714092458975,0.10218976166126272,0.0
-0.026527854982358812,0.05937955491299092,0.10230080512771668,0.0
-0.026535901610362723,0.0593782138083236,0.1022393825339535,0.0
-0.02654368001743317,0.0593811642385917,0.10220424559166975,0.0
-0.026522758784623002,0.05937177650592047,0.10222302105701221,0.0
-0.026536706273163114,0.05933207980776785,0.10217152263778718,0.0
-0.026546898668634734,0.05940235369233533,0.10208032752040953,0.0
-0.026524904552090712,0.05941871516927662,0.10220263626606897,0.0
-0.026542607133699315,0.05934441797070718,0.10222141173141143,0.0
-0.026512566389151383,0.05938223712232556,0.10224474695262277,0.0
-0.02651176172635099,0.05942568891354667,0.1022688868366345,0.0
-0.026539656703431214,0.059277094516407794,0.10222141173141143,0.0
-0.026530268970759985,0.05922747364371701,0.10220639135913746,0.0
-0.02650881129608289,0.05945626609996153,0.10222945835941534,0.0
-0.026524636331157248,0.0593575607964469,0.10217688705645646,0.0
-0.026531610075427304,0.05933529845896941,0.10220344092886936,0.0
-0.026524636331157248,0.059408254552871534,0.10224367406888892,0.0
-0.02649513202847624,0.05943588130901829,0.10222650792914724,0.0
-0.02653858381969736,0.059340662877638686,0.10216481711445059,0.0
-0.02653724271503004,0.05935541502897919,0.10222141173141143,0.0
-0.026546362226767806,0.059293187772415615,0.10222248461514528,0.0
-0.026553604191971326,0.05937177650592047,0.10220049049860126,0.0
-0.026520881238088757,0.059419251611143545,0.10230911997665405,0.0
-0.02653214651729423,0.05938170068045863,0.10227210548783607,0.0
-0.026554945296638644,0.05931813231922774,0.1022688868366345,0.0
-0.02656057793624138,0.05931196323775807,0.10228846696477735,0.0
-0.026554945296638644,0.05936265699418271,0.10231663016279104,0.0
-0.02655387241290479,0.05927843562107511,0.10228846696477735,0.0
-0.02653214651729423,0.05932564250536472,0.10228310254610808,0.0
-0.026550117319836298,0.059317327656427346,0.10224206474328813,0.0
-0.02654368001743317,0.05933932177297137,0.10224394228982238,0.0
-0.026557895726906745,0.05934388152884025,0.10226218131329791,0.0
-0.026554945296638644,0.05930606237722187,0.10225681689462864,0.0
-0.026558700389707136,0.059226132539049695,0.10224045541768735,0.0
-0.026554945296638644,0.05948684328637639,0.10226057198769713,0.0
-0.026558432168773672,0.059427298239147455,0.10222784903381456,0.0
-0.02655977327344099,0.0593272518309655,0.10226191309236445,0.0
-0.026546898668634734,0.05940369479700265,0.10230777887198673,0.0
-0.026540997808098533,0.05938223712232556,0.1022474291619574,0.0
-0.026536169831296186,0.059357292575513435,0.10231421617438986,0.0
-0.02655172664543708,0.05926931610933735,0.10225279358062668,0.0
-0.026524904552090712,0.05923149695771897,0.10228310254610808,0.0
-0.026525172773024176,0.05940047614580109,0.10229517248811394,0.0
-0.026523563447423393,0.0593302022612336,0.10221121933593981,0.0
-0.026573988982914565,0.059264756353468465,0.10223991897582042,0.0
-0.026548239773302052,0.059304184830687626,0.10227907923210612,0.0
-0.026570770331713,0.0592762898536074,0.10221309688247406,0.0
-0.026573720761981102,0.05929640642361718,0.10223911431302003,0.0
-0.02657586652944881,0.05928835979561327,0.1022415283014212,0.0
-0.026564333029309873,0.05928326359787746,0.10219834473113355,0.0
-0.026573184320114174,0.05927414408613969,0.10222409394074607,0.0
-0.026589277576121995,0.05926663390000271,0.10225628045276171,0.0
-0.026593837331990878,0.05934736840097528,0.10223133590594959,0.0
-0.026594373773857805,0.059264488132535,0.10222194817327836,0.0
-0.026589814017988923,0.05927307120240584,0.10224903848755819,0.0
-0.02658525426212004,0.059393770622464495,0.10235498575627634,0.0
-0.02660858948333138,0.05937660448272282,0.10232789544199651,0.0
-0.026627901390540765,0.05932215563322969,0.10223401811528422,0.0
-0.026632997588276575,0.05926877966747042,0.10232601789546227,0.0
-0.026602420401861716,0.059298283970151425,0.10236410526801411,0.0
-0.0266099305879987,0.05927387586520623,0.10233272341879886,0.0
-0.026604566169329425,0.05946028941396349,0.10229302672064623,0.0
-0.026597860645992833,0.05934361330790679,0.1022932949415797,0.0
-0.02659330089012395,0.05935702435457997,0.10239843754749746,0.0
-0.02660134751812786,0.05933422557523556,0.1023944142334955,0.0
-0.02659544665759166,0.05933637134270327,0.1023552539772098,0.0
-0.026622805192804955,0.05929721108641757,0.10233406452346618,0.0
-0.026595983099458587,0.05934683195910835,0.10238985447762662,0.0
-0.026613417460133727,0.059364534540716954,0.1023914638032274,0.0
-0.02663997133254663,0.059233374504253214,0.10240782528016869,0.0
-0.026629510716141547,0.05928272715601053,0.10245986014126064,0.0
-0.026619318320669928,0.059226132539049695,0.10241667657097299,0.0
-0.02663916666974624,0.059145934479944054,0.10239065914042701,0.0
-0.026639703111613167,0.05933207980776785,0.10236893324481645,0.0
-0.026627096727740374,0.05933798066830405,0.10235176710507478,0.0
-0.026634338692943894,0.05935246459871109,0.10234828023293975,0.0
-0.026641580658147413,0.0593331526915017,0.10235686330281059,0.0
-0.026636752681345067,0.05930579415628841,0.10239280490789472,0.0
-0.026626560285873447,0.059262610586000755,0.10233191875599847,0.0
-0.02659249622732356,0.05936694852911813,0.10232789544199651,0.0
-0.02662521918120613,0.05925107708586182,0.10232199458146031,0.0
-0.026602152180928252,0.05930016151668567,0.10240353374523327,0.0
-0.02661449034386758,0.059243030457857906,0.10235927729121176,0.0
-0.026617440774135682,0.059381432459525166,0.10233942894213545,0.0
-0.026590618680789314,0.05941040032033924,0.10244939952485556,0.0
-0.02662387807653881,0.059341199319505614,0.10238824515202584,0.0
-0.026616099669468363,0.05930472127255455,0.10237724809375383,0.0
-0.026617708995069145,0.059325910726298184,0.10238207607055617,0.0
-0.026639434890679704,0.05932349673789701,0.10239843754749746,0.0
-0.026659015018822552,0.059286750470012486,0.10238073496588886,0.0
-0.026632997588276575,0.059310622133090754,0.10241372614070489,0.0
-0.0266276331696073,0.05932939759843321,0.10238368539615696,0.0
-0.026643726425615123,0.05926234236506729,0.10235257176787517,0.0
-0.02665660103042138,0.05919367780610059,0.10234693912827243,0.0
-0.02664506753028244,0.059334762017102485,0.1024453762108536,0.0
-0.02664211710001434,0.059411204983139634,0.10241104393137025,0.0
-0.026635679797611212,0.059387869761928294,0.10239334134976165,0.0
-0.026664111216558362,0.059285945807212095,0.1023582044074779,0.0
-0.026619854762536855,0.05940932743660539,0.10239951043123131,0.0
-0.02664935906521786,0.05928648224907902,0.10235686330281059,0.0
-0.026640775995347022,0.05928111783040975,0.10244269400151897,0.0
-0.026657673914155234,0.059325374284431256,0.1023952188962959,0.0
-0.02666840275149378,0.059336907784570195,0.10235149888414131,0.0
-0.02665874679788909,0.059265561016268856,0.1022991958021159,0.0
-0.026658478576955625,0.059275753411740476,0.10231555727905718,0.0
-0.02665660103042138,0.05940959565753885,0.10231904415119221,0.0
-0.026635948018544676,0.0593065988190888,0.10234559802360511,0.0
-0.02662521918120613,0.05930445305162109,0.1023050966626521,0.0
-0.026647749739617078,0.05927226653960545,0.10228417542984193,0.0
-0.02665230949548596,0.05932617894723165,0.1023287001047969,0.0
-0.02665740569322177,0.05930981747029036,0.10233191875599847,0.0
-0.026655796367620988,0.05930606237722187,0.10228819874384389,0.0
-0.02662602384400652,0.059384919331660194,0.10228176144144076,0.0
-0.026621464088137637,0.05931008569122383,0.1023354056281335,0.0
-0.026648286181484005,0.05919609179450176,0.10234532980267165,0.0
-0.026643994646548586,0.0594055723435369,0.10228122499957383,0.0
-0.02666625698402607,0.059378482029257065,0.10221980240581065,0.0
-0.026641580658147413,0.05935031883124338,0.10233272341879886,0.0
-0.026639434890679704,0.05929801574921796,0.10237644343095344,0.0
-0.02664292176281473,0.059264488132535,0.10233433274439964,0.0
-0.02664560397214937,0.05936212055231578,0.1023619595005464,0.0
-0.026638898448812776,0.05936560742445081,0.10231233862785562,0.0
-0.026650700169885178,0.05934844128470913,0.10231502083719025,0.0
-0.026647481518683614,0.05930901280748997,0.10236464170988104,0.0
-0.02662092764627071,0.059269047888403883,0.10233647851186735,0.0
-0.02663487513481082,0.059308476365623045,0.10230456022078517,0.0
-0.026625487402139592,0.059378482029257065,0.10234586624453858,0.0
-0.0266128810182668,0.05933824888923751,0.10235686330281059,0.0
-0.026621464088137637,0.0593302022612336,0.10235257176787517,0.0
-0.026620659425337246,0.05932054630762891,0.10232038525585953,0.0
-0.026633534030143503,0.059334762017102485,0.10231072930225484,0.0
-0.02662387807653881,0.059316522993626955,0.10238878159389277,0.0
-0.026611271692666017,0.05932698361003204,0.10237805275655422,0.0
-0.02660644371586367,0.05931410900522578,0.10234398869800433,0.0
-0.026597324204125906,0.05924168935319059,0.10240219264056595,0.0
-0.026615295006667972,0.05930740348188919,0.102350157779474,0.0
-0.026617172553202218,0.059359438342981144,0.10232977298853076,0.0
-0.026608053041464453,0.05935621969177958,0.10236410526801411,0.0
-0.026573184320114174,0.05936077944764846,0.10237215189601802,0.0
-0.026561650819975236,0.05932215563322969,0.10234023360493584,0.0
-0.026596519541325515,0.05926100126039997,0.10228042033677344,0.0
-0.026614758564801045,0.05933422557523556,0.1023354056281335,0.0
-0.026622000530004564,0.05929211488868176,0.10235927729121176,0.0
-0.026624414518405738,0.05929962507481874,0.10235203532600824,0.0
-0.02661663611133529,0.05936077944764846,0.10231421617438986,0.0
-0.026603761506529034,0.0593184005401612,0.10234452513987126,0.0
-0.026603761506529034,0.059234179167053605,0.10232923654666383,0.0
-0.026609662367065235,0.05922264566691467,0.10226915505756796,0.0
-0.02660054285532747,0.059377677366456674,0.10227961567397305,0.0
-0.026598128866926297,0.059358097238313826,0.1023109975231883,0.0
-0.026616904332268754,0.059283800039744386,0.1022903445113116,0.0
-0.02660939414613177,0.059291846667748296,0.10236893324481645,0.0
-0.02657586652944881,0.05933798066830405,0.10239709644283014,0.0
-0.02657640297131574,0.05933851711017098,0.10235981373307869,0.0
-0.02660644371586367,0.05931196323775807,0.10235954551214523,0.0
-0.02661449034386758,0.05925349107426299,0.1023649099308145,0.0
-0.026650431948951715,0.05918858160836478,0.10236410526801411,0.0
-0.026589277576121995,0.05951071494945466,0.10237617521001997,0.0
-0.0266246827393392,0.05936372987791656,0.10237751631468729,0.0
-0.02664560397214937,0.059323764958830474,0.10235391287254249,0.0
-0.026646140414016296,0.05931625477269349,0.10234667090733897,0.0
-0.026611271692666017,0.05937097184312008,0.1023708107913507,0.0
-0.02661073525079909,0.05929452887708293,0.10237268833788495,0.0
-0.026611271692666017,0.059350050610309915,0.10243786602471662,0.0
-0.026631656483609257,0.059325374284431256,0.10237644343095344,0.0
-0.026619050099736464,0.05927736273734126,0.10234452513987126,0.0
-0.026611003471732553,0.05928031316760936,0.10230992463945444,0.0
-0.026612612797333336,0.059403963017936115,0.10229892758118243,0.0
-0.02662387807653881,0.05932054630762891,0.10231743482559143,0.0
-0.026622000530004564,0.059324569621630865,0.10233513740720003,0.0
-0.02660858948333138,0.059382773564192484,0.10234613446547204,0.0
-0.0266128810182668,0.05934549085444103,0.10244886308298863,0.0
-0.026635948018544676,0.059369094296585836,0.10240192441963249,0.0
-0.026646140414016296,0.05934736840097528,0.10232548145359534,0.0
-0.02666545232122568,0.0593693625175193,0.1023383560584016,0.0
-0.026665988763092608,0.0592703889930712,0.10234184293053662,0.0
-0.02665874679788909,0.05919528713170137,0.1023893180357597,0.0
-0.026643994646548586,0.05947048180943511,0.10243572025724891,0.0
-0.026650700169885178,0.059403158355135724,0.10239870576843092,0.0
-0.026669207414294172,0.05935326926151148,0.10238046674495539,0.0
-0.026662233670024117,0.059312767900558463,0.10240165619869902,0.0
-0.026663038332824508,0.05925805083013187,0.10242552786177729,0.0
-0.026661429007223725,0.059391624854996786,0.10241345791977143,0.0
-0.02665740569322177,0.059293992435216006,0.10239575533816282,0.0
-0.026661429007223725,0.059243566899724834,0.10242338209430958,0.0
-0.026664379437491826,0.05928755513281288,0.10242284565244265,0.0
-0.026672962507362664,0.05929721108641757,0.10240299730336634,0.0
-0.02664801796055054,0.059323764958830474,0.10243303804791427,0.0
-0.02662816961147423,0.05934951416844299,0.1023531082097421,0.0
-0.026672426065495736,0.0592762898536074,0.10225333002249361,0.0
-0.02669093330990473,0.05917758455009277,0.10245315461792405,0.0
-0.02665955146068948,0.05930016151668567,0.102505189479016,0.0
-0.026688251100570094,0.05920038332943718,0.10244135289685165,0.0
-0.02665955146068948,0.05931035391215729,0.1025110903395522,0.0
-0.02665740569322177,0.059285141144411704,0.10247997671127042,0.0
-0.026666793425893,0.059244371562525225,0.10247193008326651,0.0
-0.02667135318176188,0.05924571266719254,0.10247353940886729,0.0
-0.026660087902556407,0.059215940143578075,0.10246173768779489,0.0
-0.026646676855883223,0.059326715389098575,0.10247675806006885,0.0
-0.026661429007223725,0.05932000986576198,0.10243518381538198,0.0
-0.026681813798166965,0.05931303612149193,0.102427673629245,0.0
-0.026659015018822552,0.05932912937749975,0.10244725375738785,0.0
-0.026656332809487916,0.05929157844681483,0.10242794185017846,0.0
-0.02667993625163272,0.05924839487652718,0.10241238503603757,0.0
-0.026674303612029982,0.05937901847112399,0.10246361523432913,0.0
-0.02669173797270512,0.05935568324991265,0.10244725375738785,0.0
-0.026678863367898865,0.05927307120240584,0.10242391853617651,0.0
-0.02665821035602216,0.059262610586000755,0.1024040701871002,0.0
-0.026689592205237412,0.05922505965531584,0.10237912564028807,0.0
-0.02662816961147423,0.059429444006615165,0.10241855411750724,0.0
-0.026609662367065235,0.05936426631978349,0.10239173202416087,0.0
-0.02659169156452317,0.05919904222476986,0.10242311387337612,0.0
-0.02661502678573451,0.059224791434382376,0.10240246086149941,0.0
-0.026602420401861716,0.05939055197126293,0.10249875217661288,0.0
-0.026638093786012385,0.059302039063219916,0.10245986014126064,0.0
-0.026627901390540765,0.059317327656427346,0.10245074062952288,0.0
-0.026631656483609257,0.059263415248801146,0.10249794751381248,0.0
-0.026675108274830373,0.05925188174866221,0.10248346358340545,0.0
-0.026689055763370485,0.05938679687819444,0.10246146946686142,0.0
-0.02668369134470121,0.059330470482167066,0.10244859486205517,0.0
-0.026674303612029982,0.059346295517241424,0.10243437915258159,0.0
-0.026663038332824508,0.059325374284431256,0.10244725375738785,0.0
-0.02666169722815719,0.05929050556308098,0.10243840246658355,0.0
-0.02666893919336071,0.059264488132535,0.10241774945470684,0.0
-0.026650700169885178,0.059389479087529076,0.10242365031524304,0.0
-0.026652041274552497,0.059364534540716954,0.1024512770713898,0.0
-0.02665740569322177,0.059303380167887235,0.10242981939671271,0.0
-0.026638898448812776,0.05939564816899874,0.10241721301283992,0.0
-0.02664560397214937,0.05932483784256433,0.10244403510618628,0.0
-0.026631388262675793,0.05930579415628841,0.10247380762980075,0.0
-0.02660778482053099,0.059417910506476226,0.10242660074551115,0.0
-0.02666625698402607,0.05927226653960545,0.10236276416334679,0.0
-0.026644799309348977,0.059283800039744386,0.10242981939671271,0.0
-0.026611003471732553,0.05946323984423159,0.10246200590872835,0.0
-0.02665150483268557,0.05936426631978349,0.10238717226829198,0.0
-0.026642385320947804,0.05934549085444103,0.10251082211861874,0.0
-0.026636752681345067,0.05931330434242539,0.10239897398936439,0.0
-0.026640239553480095,0.059320814528562374,0.10241318969883796,0.0
-0.026587936471454677,0.059426493576347064,0.10245261817605712,0.0
-0.026629242495208084,0.059351391714977234,0.10239173202416087,0.0
-0.02662092764627071,0.05938894264566215,0.10243491559444852,0.0
-0.026654991704820597,0.059237934260122097,0.10232977298853076,0.0
-0.02663192470454272,0.059278703842008576,0.10245825081565986,0.0
-0.026602152180928252,0.05940718166913768,0.1024432304433859,0.0
-0.02663407047201043,0.05926529279533539,0.10236410526801411,0.0
-0.026597324204125906,0.05935353748244494,0.10239709644283014,0.0
-0.026614758564801045,0.059277899179208185,0.1024158719081726,0.0
-0.026613953902000654,0.059291846667748296,0.10246656566459723,0.0
-0.0266276331696073,0.05927843562107511,0.1024432304433859,0.0
-0.02663782556507892,0.059228278306517404,0.10239763288469707,0.0
-0.02664131243721395,0.05931598655176003,0.10237349300068534,0.0
-0.02659973819252708,0.05932322851696355,0.10251913696755612,0.0
-0.02663621623947814,0.0592703889930712,0.1025022390487479,0.0
-0.026627901390540765,0.05927977672574243,0.10246441989712952,0.0
-0.026621464088137637,0.05929989329575221,0.10249741107194556,0.0
-0.026614222122934118,0.059344149749773714,0.10249097376954243,0.0
-0.02658525426212004,0.05933342091243517,0.10248668223460701,0.0
-0.026607248378664062,0.05929050556308098,0.10240004687309824,0.0
-0.026613149239200263,0.059209502841174946,0.10249580174634478,0.0
-0.02660939414613177,0.0593302022612336,0.10250411659528215,0.0
-0.026594373773857805,0.05926502457440193,0.1024904373276755,0.0
-0.026608053041464453,0.059401012587668015,0.10250384837434869,0.0
-0.026601079297194397,0.05940154902953494,0.1025169912000884,0.0
-0.02658525426212004,0.059351391714977234,0.10251028567675181,0.0
-0.026562187261842164,0.059411204983139634,0.10258190066598662,0.0
-0.026587936471454677,0.059393770622464495,0.10251243144421952,0.0
-0.026592228006390096,0.059339858214838295,0.10249258309514321,0.0
-0.026595714878525124,0.059301234400419525,0.10251082211861874,0.0
-0.026619318320669928,0.059259660155732655,0.10251511365355416,0.0
-0.026587131808654286,0.05935621969177958,0.10245610504819215,0.0
-0.026581767389985012,0.059455729658094605,0.10248560935087316,0.0
-0.026592228006390096,0.05937284938965433,0.10246871143206494,0.0
-0.026579889843450766,0.05933529845896941,0.10250706702555025,0.0
-0.02657506186664842,0.05936292521511617,0.10249177843234282,0.0
-0.026581230948118085,0.05934334508697332,0.10244644909458746,0.0
-0.026612076355466408,0.05933663956363673,0.10240675239643483,0.0
-0.026597324204125906,0.05929560176081679,0.10247058897859919,0.0
-0.026602956843728643,0.05922157278318081,0.10252611071182617,0.0
-0.02660858948333138,0.059401817250468406,0.1025081399092841,0.0
-0.026586327145853895,0.05928245893507707,0.10254756838650327,0.0
-0.026572379657313783,0.05937016718031969,0.10251243144421952,0.0
-0.026615295006667972,0.05938223712232556,0.10251565009542109,0.0
-0.026610467029865626,0.05944419615795567,0.10256956250304729,0.0
-0.026625487402139592,0.059394575285264886,0.10252718359556003,0.0
-0.026629242495208084,0.05939779393646645,0.10251725942102187,0.0
-0.026626292064939983,0.059368289633785445,0.10252798825836042,0.0
-0.026613417460133727,0.059334762017102485,0.10248346358340545,0.0
-0.026612344576399872,0.059394575285264886,0.10245261817605712,0.0
-0.026591959785456632,0.059371240064053546,0.10245530038539176,0.0
-0.026560846157174845,0.05937499515712204,0.10252986580489466,0.0
-0.026563528366509482,0.059325374284431256,0.10250438481621561,0.0
-0.026540997808098533,0.0593664120872512,0.1024697843157988,0.0
-0.026569429227045683,0.05942381136701243,0.10246576100179684,0.0
-0.02657130677357993,0.05939993970393416,0.10246763854833109,0.0
-0.0265678199014449,0.05940798633193807,0.10252852470022734,0.0
-0.026580426285317694,0.05929721108641757,0.10248507290900623,0.0
-0.026589814017988923,0.059277094516407794,0.10247246652513343,0.0
-0.026576939413182666,0.05933234802870131,0.1024668338855307,0.0
-0.02655682284317289,0.05944821947195762,0.10247729450193578,0.0
-0.02657425720384803,0.05942461602981282,0.10243518381538198,0.0
-0.026584717820253113,0.059437490634619075,0.10248829156020779,0.0
-0.026600811076260934,0.05936507098258388,0.10248560935087316,0.0
-0.026568356343311828,0.05941013209940578,0.10253147513049544,0.0
-0.02658659536678736,0.05940771811100461,0.10251162678141913,0.0
-0.026594373773857805,0.05941469185527466,0.10249902039754634,0.0
-0.026578548738783448,0.05946860426290086,0.10245315461792405,0.0
-0.026587936471454677,0.0593516599359107,0.10254890949117058,0.0
-0.026589277576121995,0.0593664120872512,0.10257814557291813,0.0
-0.026601615739061325,0.05939779393646645,0.10249526530447785,0.0
-0.02662253697187149,0.059375531598988965,0.10247595339726846,0.0
-0.026586327145853895,0.05937445871525511,0.10258565575905511,0.0
-0.02660054285532747,0.0593782138083236,0.10248963266487511,0.0
-0.026611271692666017,0.05937177650592047,0.1025140407698203,0.0
-0.026594373773857805,0.05938384644792634,0.10261757405013729,0.0
-0.026598933529726688,0.05940718166913768,0.10259504349172634,0.0
-0.02660939414613177,0.059355146808045725,0.1025443497353017,0.0
-0.026626292064939983,0.059266902120936174,0.10253362089796315,0.0
-0.026585790703986967,0.05940771811100461,0.10258216888692008,0.0
-0.026609125925198308,0.05923739781825517,0.10258619220092204,0.0
-0.026613149239200263,0.05929050556308098,0.10256258875877723,0.0
-0.026603225064662107,0.059498645007448794,0.10253174335142891,0.0
-0.026592228006390096,0.05939698927366606,0.10256446630531148,0.0
-0.026591959785456632,0.05944526904168952,0.10256124765410991,0.0
-0.02661153991359948,0.05937714092458975,0.10252825647929388,0.0
-0.02662253697187149,0.059356487912713043,0.10259745748012751,0.0
-0.026598128866926297,0.05939618461086567,0.10259853036386136,0.0
-0.026595178436658196,0.05938465111072673,0.10261220963146801,0.0
-0.026576134750382275,0.05942783468101438,0.10258324177065394,0.0
-0.026605370832129816,0.05942595713448014,0.10250948101395142,0.0
-0.026590618680789314,0.059428639343814774,0.10259397060799248,0.0
-0.02656996566891261,0.05940342657606919,0.10267202289963041,0.0
-0.026579085180650375,0.05939055197126293,0.10261408717800226,0.0
-0.026571038552646465,0.059435344867151366,0.10265566142268913,0.0
-0.026576134750382275,0.059436685971818684,0.1026167693873369,0.0
-0.026565942354910655,0.05944634192542338,0.10259397060799248,0.0
-0.026557359285039817,0.05943990462302025,0.10269696744644254,0.0
-0.026568892785178756,0.05944526904168952,0.10263232620147779,0.0
-0.02657720763411613,0.05942568891354667,0.1026167693873369,0.0
-0.02657720763411613,0.05938304178512595,0.10259879858479483,0.0
-0.026563528366509482,0.05945438855342729,0.10260550410813142,0.0
-0.026544216459300097,0.05932215563322969,0.10265941651575762,0.0
-0.02656996566891261,0.059493548809712984,0.10253576666543086,0.0
-0.02655172664543708,0.05955792183374427,0.1026698771321627,0.0
-0.02654958087796937,0.059521980228660135,0.1027149382489846,0.0
-0.026555749959439035,0.05946699493730008,0.10263313086427818,0.0
-0.02654072958716507,0.059447683030090695,0.10265271099242103,0.0
-0.026520076575288366,0.05948952549571103,0.10264520080628405,0.0
-0.02654448468023356,0.05951661580999086,0.10256071121224299,0.0
-0.026575598308515348,0.05946350806516505,0.10261730582920382,0.0
-0.026568356343311828,0.05946484916983237,0.1026285711084093,0.0
-0.026549044436102443,0.05951527470532354,0.10262588889907466,0.0
-0.0265619190409087,0.059439636402086785,0.10260604054999835,0.0
-0.026565137692110264,0.05944741480915723,0.10264171393414902,0.0
-0.026579621622517303,0.05947048180943511,0.10261489184080265,0.0
-0.026573184320114174,0.05946967714663472,0.10267524155083198,0.0
-0.026570233889846074,0.05944419615795567,0.10266558559722729,0.0
-0.026563528366509482,0.05948228353050751,0.102678728422967,0.0
-0.02654877621516898,0.059496499239981085,0.10267926486483393,0.0
-0.02656272370370909,0.059505886972652314,0.10267309578336427,0.0
-0.02656272370370909,0.05951312893785583,0.10268704327190438,0.0
-0.02654153424996546,0.059529222193863654,0.10268865259750516,0.0
-0.026576134750382275,0.05946136229769734,0.10256902606118036,0.0
-0.02655172664543708,0.05933798066830405,0.10263474018987896,0.0
-0.026512834610084846,0.059522784891460526,0.10271627935365192,0.0
-0.02655762750597328,0.0596123706832374,0.10268087419043471,0.0
-0.026571843215446856,0.059643216090585725,0.10263715417828013,0.0
-0.026605907273996744,0.05955872649654466,0.10268301995790242,0.0
-0.02658230383185194,0.05966816063739785,0.10271118315591611,0.0
-0.02659973819252708,0.05960486049710042,0.10270501407444645,0.0
-0.02658900935518853,0.0595850121480241,0.10274202856326445,0.0
-0.026580694506251158,0.05953860992653488,0.10268999370217248,0.0
-0.02659464199479127,0.059597886752830356,0.10268409284163628,0.0
-0.026568892785178756,0.05962980504391254,0.10272915395845819,0.0
-0.026573720761981102,0.05961853976470707,0.10266934069029578,0.0
-0.026561650819975236,0.05961505289257204,0.10270286830697874,0.0
-0.026539656703431214,0.059611834241370475,0.10280345115702763,0.0
-0.02655038554076976,0.059637315230049524,0.10281069312223115,0.0
-0.02657425720384803,0.0596123706832374,0.10278601679635249,0.0
-0.02656057793624138,0.05957830662468751,0.10275248917966953,0.0
-0.02655172664543708,0.059600837183098464,0.10272915395845819,0.0
-0.026551190203570153,0.05958635325269142,0.10268114241136818,0.0
-0.026578280517849984,0.059500254333049576,0.10269079836497287,0.0
-0.026590082238922386,0.059529222193863654,0.10265163810868717,0.0
-0.026571038552646465,0.059520639123992816,0.10273880991206288,0.0
-0.026573720761981102,0.059621221974041703,0.10275409850527031,0.0
-0.026567551680511437,0.05962149019497517,0.10272513064445624,0.0
-0.026568356343311828,0.05969686027727846,0.10268516572537013,0.0
-0.026575330087581884,0.059625781729910586,0.10267175467869695,0.0
-0.026568088122378365,0.059619076206573994,0.10269777210924293,0.0
-0.02655172664543708,0.05962819571831176,0.10273559126086132,0.0
-0.02655762750597328,0.05965716357912584,0.10272137555138773,0.0
-0.026563796587442946,0.059652603823256954,0.10271332892338382,0.0
-0.026560309715307918,0.05963704700911606,0.10269294413244058,0.0
-0.02657640297131574,0.05961156602043701,0.10270689162098069,0.0
-0.026587668250521213,0.059630073264846005,0.10272110733045427,0.0
-0.026566747017711046,0.059637315230049524,0.10272271665605506,0.0
-0.02656406480837641,0.05961129779950355,0.10269053014403941,0.0
-0.026543143575566242,0.059619076206573994,0.10270125898137795,0.0
-0.026557359285039817,0.05961210246230394,0.10268677505097092,0.0
-0.026587668250521213,0.05956382269428047,0.10268436106256974,0.0
-0.026562187261842164,0.059632219032313714,0.1026824835160355,0.0
-0.02656111437810831,0.059609688473902765,0.10272030266765388,0.0
-0.026545021122100488,0.05953673238000064,0.10276697311007657,0.0
-0.026570770331713,0.059516079368123934,0.10274444255166562,0.0
-0.026579085180650375,0.059521175565859744,0.10278950366848752,0.0
-0.026575598308515348,0.05955523962440963,0.10275383028433685,0.0
-0.026562991924642555,0.059779472324785275,0.10273827347019596,0.0
-0.026558432168773672,0.05969605561447807,0.10275624427273802,0.0
-0.026563528366509482,0.059659845788460474,0.10277233752874584,0.0
-0.026561650819975236,0.059612638904170866,0.10273210438872629,0.0
-0.026576939413182666,0.05960995669483623,0.10275892648207266,0.0
-0.02657211143638032,0.05959439988069533,0.10274766120286719,0.0
-0.02657720763411613,0.05957267398508477,0.10272432598165585,0.0
-0.026550117319836298,0.05958662147362488,0.10276429090074193,0.0
-0.02653938848249775,0.05960781092736852,0.10278440747075171,0.0
-0.026546362226767806,0.05957240576415131,0.10273800524926249,0.0
-0.026526782098624958,0.059578038403754044,0.10278092059861668,0.0
-0.026523027005556466,0.059632219032313714,0.10274417433073216,0.0
-0.026558700389707136,0.05960217828776578,0.10268945726030555,0.0
-0.026547703331435125,0.05955094808947421,0.10274068745859713,0.0
-0.02654797155236859,0.05954129213586952,0.10270072253951103,0.0
-0.026555749959439035,0.0594978403446484,0.10274578365633294,0.0
-0.026543948238366633,0.059543169682403765,0.10279862318022528,0.0
-0.02653724271503004,0.0596035193924331,0.10283805165744445,0.0
-0.026514712156619092,0.05955363029880885,0.10277904305208244,0.0
-0.02654743511050166,0.05946565383263276,0.1027645591216754,0.0
-0.026536706273163114,0.059597082090029965,0.10281337533156579,0.0
-0.02652624565675803,0.05960727448550159,0.10280613336636227,0.0
-0.026526782098624958,0.05962390418337634,0.10277662906368126,0.0
-0.02651524859848602,0.05972582813809254,0.1027645591216754,0.0
-0.026526782098624958,0.059589035462026055,0.10269213946964019,0.0
-0.026537510935963505,0.05960620160176774,0.10270635517911376,0.0
-0.02651605326128641,0.05967003818393209,0.10276965531941121,0.0
-0.02652329522648993,0.05962095375310824,0.10272942217939166,0.0
-0.0265050562030144,0.05963838811378338,0.10270742806284762,0.0
-0.02648574429580501,0.05962900038111215,0.10264976056215293,0.0
-0.026529464307959594,0.05953136796133136,0.10272352131885545,0.0
-0.02651739436595373,0.059584743927090636,0.10275034341220182,0.0
-0.02648869472607311,0.059617735101906676,0.10274739298193372,0.0
-0.02648869472607311,0.05962980504391254,0.1027060869581803,0.0
-0.026491913377274676,0.05969176407954265,0.10268060596950125,0.0
-0.026514175714752165,0.05958232993868946,0.10266129406229187,0.0
-0.02649137693540775,0.0595938634388284,0.10267899664390047,0.0
-0.026504787982080936,0.0596721839513998,0.10269079836497287,0.0
-0.026538315598763896,0.05963651056724913,0.1027119878187165,0.0
-0.026517930807820656,0.059673793277000585,0.10268114241136818,0.0
-0.02649727779594395,0.05968559499807299,0.10269884499297678,0.0
-0.02649298626100853,0.05968237634687142,0.10273076328405897,0.0
-0.02652544099395764,0.05967620726540176,0.10264949234121946,0.0
-0.02656111437810831,0.05957937950842136,0.10260738165466567,0.0
-0.026522222342756075,0.05953914636840181,0.1027253988653897,0.0
-0.026517126145020265,0.059734947649830304,0.10274712476100026,0.0
-0.02652624565675803,0.05971214887048589,0.10270099076044449,0.0
-0.02654877621516898,0.0596182715437736,0.10265834363202377,0.0
-0.026564333029309873,0.05958340282242332,0.10269321235337404,0.0
-0.02655816394784021,0.0597505044639712,0.1027253988653897,0.0
-0.026558700389707136,0.059676743707268685,0.10268650683003745,0.0
-0.026557895726906745,0.059642411427785334,0.10267846020203354,0.0
-0.02654368001743317,0.05975077268490466,0.10268006952763432,0.0
-0.026556286401305963,0.05968291278873835,0.10270045431857756,0.0
-0.026582572052785403,0.05963490124164835,0.10267390044616466,0.0
-0.026559505052507527,0.05964992161392232,0.10266370805069304,0.0
-0.02653724271503004,0.05962444062524327,0.10275517138900417,0.0
-0.026537510935963505,0.05962229485777556,0.10274229678419791,0.0
-0.02654368001743317,0.059651262718589636,0.10273585948179478,0.0
-0.026504787982080936,0.05966735597459746,0.1027498069703349,0.0
-0.02655172664543708,0.05958635325269142,0.10272298487698853,0.0
-0.02652705031955842,0.059593326996961474,0.10274712476100026,0.0
-0.026524636331157248,0.05960834736923545,0.10270286830697874,0.0
-0.02653563338942926,0.0596456300789869,0.10267443688803159,0.0
-0.026554140633838253,0.05960781092736852,0.10275222095873607,0.0
-0.026568624564245292,0.05956087226401237,0.10265995295762455,0.0
-0.026539120261564287,0.05970705267275008,0.10273156794685936,0.0
-0.026522222342756075,0.05965233560232349,0.10277904305208244,0.0
-0.026536706273163114,0.059603787613366564,0.10269187124870673,0.0
-0.026553335971037862,0.05956704134548203,0.10267980130670086,0.0
-0.02653214651729423,0.05970624800994969,0.10272405776072238,0.0
-0.026534828726628868,0.059679694137536786,0.10267095001589656,0.0
-0.026515516819419483,0.05957347864788516,0.10272566708632316,0.0
-0.026492449819141603,0.059621221974041703,0.10276214513327422,0.0
-0.026505324423947863,0.059730656114894885,0.10268597038817052,0.0
-0.02651524859848602,0.059627927497378296,0.10268006952763432,0.0
-0.026522758784623002,0.05958420748522371,0.10273156794685936,0.0
-0.0265168579240868,0.05964884873018846,0.10271386536525075,0.0
-0.026539120261564287,0.05961156602043701,0.10269669922550907,0.0
-0.026518467249687584,0.05963195081138025,0.10268382462070282,0.0
-0.02649379092380892,0.05970088359128042,0.10267390044616466,0.0
-0.0265080066332825,0.05965609069539198,0.1026462736900179,0.0
-0.026520613017155293,0.05960834736923545,0.10269804033017639,0.0
-0.026484403191137693,0.059677548370069076,0.10269160302777326,0.0
-0.02646079974899289,0.05971214887048589,0.10272995862125858,0.0
-0.026459726865259034,0.059704370463415445,0.10267899664390047,0.0
-0.026474479016599536,0.05964080210218455,0.10263822706201399,0.0
-0.026500496447145513,0.0595399510312022,0.1027439061097987,0.0
-0.02648708540047233,0.0596906911958088,0.10272781285379087,0.0
-0.026490304051673894,0.059668697079264775,0.10270742806284762,0.0
-0.026494059144742385,0.05972421881249176,0.10271520646991807,0.0
-0.026494595586609312,0.059794760917992705,0.10268328817883589,0.0
-0.026520613017155293,0.05960056896216499,0.10266960891122924,0.0
-0.02649003583074043,0.05970034714941349,0.10276053580767344,0.0
-0.026515785040352947,0.059686131439939914,0.10274229678419791,0.0
-0.02649727779594395,0.05967781659100254,0.10275114807500221,0.0
-0.02651015240075021,0.05958742613642527,0.10268999370217248,0.0
-0.026501569330879368,0.05962336774150941,0.10265727074828991,0.0
-0.026483330307403838,0.05973226544049567,0.10269562634177522,0.0
-0.02649137693540775,0.0596544813697912,0.10273612770272825,0.0
-0.026486548958605402,0.05966896530019824,0.10278574857541903,0.0
-0.026501301109945904,0.059649653392988854,0.10274766120286719,0.0
-0.026495400249409704,0.05961719866003975,0.1027460518772664,0.0
-0.02644846158605356,0.05973816630103187,0.10279191765688869,0.0
-0.026481720981803056,0.05969525095167768,0.10271279248151689,0.0
-0.026492449819141603,0.059656358916325446,0.10266612203909421,0.0
-0.026499960005278586,0.05965099449765617,0.10274176034233098,0.0
-0.026488158284206184,0.05960110540403193,0.10272030266765388,0.0
-0.026507470191415573,0.05966306443966204,0.10276804599381043,0.0
-0.026479306993401883,0.05975774642917472,0.10279942784302568,0.0
-0.02650720197048211,0.05961585755537243,0.10272432598165585,0.0
-0.026512834610084846,0.05981139061586745,0.10277367863341316,0.0
-0.026523831668356857,0.0596936416260769,0.10278467569168517,0.0
-0.02651176172635099,0.05966735597459746,0.10282356772703741,0.0
-0.026509079517016355,0.0597054433471493,0.1027675095519435,0.0
-0.026530268970759985,0.0596692335211317,0.10273532303992786,0.0
-0.0265139074938187,0.05967111106766595,0.10276053580767344,0.0
-0.02649218159820814,0.059718317951955556,0.10278869900568713,0.0
-0.026522222342756075,0.059649653392988854,0.10276831421474389,0.0
-0.026520881238088757,0.059718317951955556,0.10281632576183389,0.0
-0.026512029947284455,0.05972368237062483,0.10283885632024484,0.0
-0.02647394257473261,0.05973414298702991,0.10279004011035445,0.0
-0.02648118453993613,0.05969471450981075,0.10270206364417835,0.0
-0.02649379092380892,0.059649116951121926,0.10274336966793177,0.0
-0.026473674353799145,0.05974862691743695,0.1027978185174249,0.0
-0.02648574429580501,0.059676743707268685,0.10282034907583584,0.0
-0.026491913377274676,0.05963114614857986,0.10275087985406875,0.0
-0.026458385760591716,0.059662796218728574,0.10274363788886523,0.0
-0.02649432736567585,0.0597770583363841,0.1027439061097987,0.0
-0.02650881129608289,0.05959574098536265,0.10271064671404918,0.0
-0.026506933749548645,0.05970034714941349,0.10266934069029578,0.0
-0.026474747237533,0.05981863258107097,0.1028066698082292,0.0
-0.026497814237810877,0.05979154226679114,0.10276187691234076,0.0
-0.026498350679677804,0.059748090475570025,0.10273344549339361,0.0
-0.02649379092380892,0.05971295353328628,0.10271011027218226,0.0
-0.02648789006327272,0.05972958323116103,0.10271762045831924,0.0
-0.026470723923531045,0.059755332440773544,0.10274497899353255,0.0
-0.026461067969926352,0.0597564053245074,0.10273934635392981,0.0
-0.026475820121266855,0.059676743707268685,0.10269804033017639,0.0
-0.026479306993401883,0.059784568522521085,0.1027031365279122,0.0
-0.026493254481941994,0.0597652566153117,0.10270125898137795,0.0
-0.0264688463769968,0.059770084592114046,0.1026854339463036,0.0
-0.026482525644603447,0.059726096359026,0.10272620352819009,0.0
-0.026483866749270765,0.05972958323116103,0.10267846020203354,0.0
-0.02646160441179328,0.059764988394378236,0.1027090373884484,0.0
-0.0264806480980692,0.05971080776581857,0.10271842512111963,0.0
-0.026504787982080936,0.05967728014913561,0.10277394685434663,0.0
-0.02651900369155451,0.05961880798564053,0.10271440180711768,0.0
-0.02650934773794982,0.059721268382223656,0.10271413358618421,0.0
-0.026481720981803056,0.05980092999946237,0.1027578535983388,0.0
-0.02650934773794982,0.05976096508037628,0.10270555051631337,0.0
-0.026500764668078977,0.05981648681360326,0.10267524155083198,0.0
-0.026487353621405793,0.05978269097598684,0.10280130538955992,0.0
-0.02650881129608289,0.05972824212649371,0.10280452404076149,0.0
-0.026527318540491885,0.059666551311797066,0.10277394685434663,0.0
-0.02650398331928054,0.05976391551064438,0.10275114807500221,0.0
-0.026504519761147472,0.05975560066170701,0.10269884499297678,0.0
-0.02647260147006529,0.05984089491854846,0.10275651249367149,0.0
-0.026492718040075067,0.0597800087666522,0.10274149212139752,0.0
-0.026469382818863726,0.059719659056622874,0.10283429656437595,0.0
-0.02647099214446451,0.059741653173166896,0.10281739864556774,0.0
-0.026473137911932218,0.059711612428618964,0.10279352698248947,0.0
-0.026470187481664118,0.05972153660315712,0.10282946858757361,0.0
-0.026476356563133782,0.059822119453206,0.1028391245411783,0.0
-0.026458922202458643,0.05980468509253086,0.10277770194741512,0.0
-0.026473137911932218,0.059683985672472205,0.1027119878187165,0.0
-0.026452484900055515,0.05978859183652304,0.10282276306423702,0.0
-0.026477161225934173,0.059649116951121926,0.10279808673835836,0.0
-0.02647260147006529,0.059835530499879185,0.10281203422689847,0.0
-0.026467237051396017,0.05978510496438801,0.10281283888969886,0.0
-0.02646455484206138,0.059694178067943825,0.10283402834344249,0.0
-0.026464286621127917,0.05980253932506315,0.10279245409875562,0.0
-0.026454898888456688,0.059780276987585666,0.10273961457486327,0.0
-0.026457044655924397,0.05978054520851913,0.10275678071460495,0.0
-0.02645945864432557,0.05973119255676181,0.10274122390046406,0.0
-0.026463481958327525,0.05975720998730779,0.1027431014469983,0.0
-0.02647903877246842,0.05977598545265025,0.10281659398276735,0.0
-0.026487353621405793,0.059796906685460414,0.10279245409875562,0.0
-0.02646670060952909,0.05979610202266002,0.1028155210990335,0.0
-0.026472065028198363,0.05979449269705924,0.10281927619210199,0.0
-0.02649727779594395,0.05973736163823148,0.10279647741275758,0.0
-0.026494059144742385,0.059753991336106226,0.10277019176127813,0.0
-0.0264717968072649,0.059793956255192314,0.1027978185174249,0.0
-0.026497546016877413,0.0597083937774174,0.10273612770272825,0.0
-0.02648413497020423,0.0597290467892941,0.10283215079690824,0.0
-0.02650720197048211,0.05970410224248198,0.10281659398276735,0.0
-0.026530268970759985,0.05978832361558958,0.102782261703284,0.0
-0.02650934773794982,0.059777326557317566,0.10279540452902372,0.0
-0.02649808245874434,0.059753186673305834,0.10273693236552864,0.0
-0.026514712156619092,0.05968371745153874,0.10274578365633294,0.0
-0.02650881129608289,0.05980897662746628,0.10290913020481232,0.0
-0.026491645156341212,0.059829093197476056,0.10290591155361076,0.0
-0.026517930807820656,0.05979717490639388,0.10285575423905305,0.0
-0.026516589703153338,0.05989909886111008,0.10289786492560685,0.0
-0.026518735470621047,0.05982989786027645,0.10290671621641115,0.0
-0.026542070691832387,0.05982292411600639,0.10289169584413718,0.0
-0.02656621057584412,0.05977544901078332,0.10283536944810981,0.0
-0.026516589703153338,0.05982882497654259,0.10291556750721545,0.0
-0.026538047377830432,0.05977303502238215,0.10291798149561662,0.0
-0.026549044436102443,0.059799857115728515,0.10294265782149528,0.0
-0.026556554622239426,0.05977249858051522,0.10289974247214109,0.0
-0.026546362226767806,0.05976445195251131,0.10285870466932115,0.0
-0.0265619190409087,0.059765524836245164,0.10281659398276735,0.0
-0.02652329522648993,0.05980897662746628,0.10292683278642092,0.0
-0.026514980377552556,0.059781618092252985,0.10287962590213132,0.0
-0.026538315598763896,0.05970919844021779,0.10285843644838769,0.0
-0.02652758676142535,0.05967111106766595,0.10294855868203148,0.0
-0.026560309715307918,0.059745140045301924,0.10294078027496104,0.0
-0.026548507994235516,0.05980602619719818,0.10295848285656964,0.0
-0.02655682284317289,0.05966011400939394,0.10293353830975752,0.0
-0.026573452541047638,0.059774107906116,0.10292897855388863,0.0
-0.026560309715307918,0.05981139061586745,0.1029439989261626,0.0
-0.026555213517572108,0.059699274265679635,0.10290993486761271,0.0
-0.0265530677501044,0.059615589334438966,0.10295365487976729,0.0
-0.026553604191971326,0.05973038789396142,0.10294882690296495,0.0
-0.026545557563967415,0.059778667661984884,0.10293246542602366,0.0
-0.02656567413397719,0.059651262718589636,0.10294721757736416,0.0
-0.026568624564245292,0.05974862691743695,0.1029794040893798,0.0
-0.026551994866370544,0.05973977562663265,0.10295714175190232,0.0
-0.026569429227045683,0.05969525095167768,0.10293005143762249,0.0
-0.026587668250521213,0.059726901021826394,0.10286514197172428,0.0
-0.026577475855049593,0.05971107598675204,0.10295633708910193,0.0
-0.026559505052507527,0.05970168825408081,0.10305584705541695,0.0
-0.02654582578490088,0.059756137103573935,0.10303251183420561,0.0
-0.02654958087796937,0.059755332440773544,0.10300112998499036,0.0
-0.02654582578490088,0.059706516230883154,0.10295794641470271,0.0
-0.026558700389707136,0.059694178067943825,0.10291717683281623,0.0
-0.02653938848249775,0.05973307010329606,0.1029528502169669,0.0
-0.026519808354354902,0.059552557415074994,0.10294051205402757,0.0
-0.02649218159820814,0.05965904112566008,0.102907789100145,0.0
-0.02648574429580501,0.05982077834853868,0.10290457044894344,0.0
-0.026500496447145513,0.05975452777797315,0.10290537511174383,0.0
-0.026501301109945904,0.059737093417298014,0.1029166403909493,0.0
-0.026507470191415573,0.059692836963276506,0.1029166403909493,0.0
-0.026471260365397972,0.05972395059155829,0.10289625560000606,0.0
-0.026524636331157248,0.05977196213864829,0.10282624993637204,0.0
-0.026516589703153338,0.05972207304502405,0.1029949609035207,0.0
-0.02649003583074043,0.05976606127811209,0.10305960214848545,0.0
-0.0265080066332825,0.05970088359128042,0.10295419132163422,0.0
-0.02649003583074043,0.05978054520851913,0.10293407475162444,0.0
-0.026474479016599536,0.059769279929313655,0.10297269856604321,0.0
-0.026503715098347078,0.0597083937774174,0.10299764311285534,0.0
-0.026473674353799145,0.059779472324785275,0.10302178299686707,0.0
-0.026493254481941994,0.05969766494007885,0.10294373070522914,0.0
-0.026512566389151383,0.059710271323951646,0.1029713574613759,0.0
-0.026498618900611268,0.05976579305717863,0.10304055846220952,0.0
-0.0265139074938187,0.059733606545162986,0.10298959648485143,0.0
-0.026499155342478195,0.05966386910246243,0.10296277439150506,0.0
