0.0696105741990297,0.009959847922307006,0.14162735839216212,0.0
0.0738345174592158,0.004333109180105827,0.1405995357751293,0.0
0.06870774253699094,0.010339648764091582,0.14126740589945386,0.0
0.07095275175008199,0.009792209838892202,0.14180652997571588,0.0
0.07027898076522121,0.00965005274415645,0.14172499081194292,0.0
0.07269806536413018,0.005629420951535815,0.14075188526533666,0.0
0.07118288531099383,0.009716571535655444,0.14159892697321497,0.0
0.06985975144621746,0.009790064071424492,0.1415831019381406,0.0
0.07391337441365413,0.004135698573076555,0.14078755864948733,0.0
0.06898025500539005,0.010029853585941027,0.14139910237778452,0.0
0.07059521324577489,0.010293782984469292,0.14183952115053192,0.0
0.0703366482659159,0.009559662289579189,0.14180652997571588,0.0
0.06863800509429038,0.01190364502711833,0.1420766284557138,0.0
0.07277182612083269,0.007607013893963563,0.14192883872137532,0.0
0.07092136990086674,0.007554979032871608,0.14182020924332253,0.0
0.07369531079474816,0.004272491249143034,0.1406880486831723,0.0
0.06804443216853526,0.012395025777223798,0.14195807480312286,0.0
0.07336432616285397,0.0073642739491789275,0.14184166691799963,0.0
0.06990722655144053,0.010983110783470963,0.14168341656725603,0.0
0.0709814513899626,0.009065867551072544,0.14159919519414843,0.0
0.07271737727133956,0.0055626339391033576,0.14096377980277297,0.0
0.07106459987933635,0.00748229115990295,0.14093963991876124,0.0
0.0692125343337696,0.011646152930993192,0.1419148912328352,0.0
0.07171744963138695,0.008628130987659811,0.14162923593869636,0.0
0.06675589880417572,0.013456107790006135,0.14199374818727353,0.0
0.07151682037315611,0.009210170413276006,0.14173008700967873,0.0
0.06943676703414524,0.00971844908218969,0.14190523527923052,0.0
0.07309047258978756,0.004634589509319008,0.14075805434680633,0.0
0.06702653372604057,0.012749345630329327,0.14201922917595258,0.0
0.07181588671396812,0.009056748039334778,0.14181994102238907,0.0
0.06914896597253871,0.009831906537044828,0.14142029183152816,0.0
0.0698026203873897,0.011338771741243809,0.14202915335049074,0.0
0.07130465761478634,0.008918614258600981,0.14189987086056124,0.0
0.07293356334371129,0.005566657253105313,0.1414967347975653,0.0
0.07120809807873942,0.007309020436885408,0.14090584408114482,0.0
0.06891293155109066,0.011786432479194699,0.14183040163879415,0.0
0.07222277787003253,0.005371660634477214,0.1406445968919512,0.0
0.06673980554816789,0.013364644451695018,0.14217077400335956,0.0
0.07202965879793868,0.008753926605454277,0.14205570722290364,0.0
0.06994102238905696,0.00915947665685137,0.1421511938752167,0.0
0.07452867323501983,0.003152400630998687,0.14085917363872213,0.0
0.06779847357254905,0.012012542726104584,0.141735451428348,0.0
0.07336057106978548,0.004520059170730015,0.14105551136201755,0.0
0.06943944924347988,0.009239138274090083,0.14119284047995095,0.0
0.0692310415781786,0.011642934279791628,0.14194573664018353,0.0
0.07094255935461037,0.009376735612956953,0.14169414540459457,0.0
0.07197950148338098,0.006413967181917093,0.14140017526151838,0.0
0.07135186449907595,0.007119388236926584,0.14101796043133263,0.0
0.07047236805824852,0.008323700228178528,0.14203424954822655,0.0
0.07386160777349564,0.003865331872145161,0.14093212973262426,0.0
0.06743235199837112,0.01237920074214944,0.14194654130298393,0.0
0.07322887459145482,0.007499725520578089,0.1417893638359742,0.0
0.07022399547386116,0.008963407154489416,0.14192186497710527,0.0
0.07478643355207842,0.002926558605022264,0.1406622994735598,0.0
0.07014272453102166,0.009566904254782708,0.1415055860883696,0.0
0.07256985575793454,0.005427718809571124,0.14066551812476136,0.0
0.0700434827856401,0.008599163126845732,0.14077709803308225,0.0
0.06984043953900808,0.011074305900848616,0.1417893638359742,0.0
0.07115847720604863,0.008899302351391596,0.14170031448606424,0.0
0.07145030158165712,0.006803423977306363,0.14119364514275135,0.0
0.07283539448206358,0.008105100167405625,0.14128296271359475,0.0
0.06991285919104327,0.00903797257399232,0.14151551026290776,0.0
0.07303709662402827,0.004933655850131017,0.14002956629151894,0.0
0.06704933250538499,0.01294541513269128,0.14147581356475514,0.0
0.07193283104095828,0.00924477091369282,0.14108421100189816,0.0
0.0697183990142821,0.009501458347017568,0.1415299941933148,0.0
0.07105011594892931,0.009906203735614268,0.14196853541952795,0.0
0.0704297209298278,0.009381027147892372,0.14187197588348102,0.0
0.07205701733315198,0.005871088012586596,0.14104505074561247,0.0
0.06987262605102372,0.008865238292841708,0.14096163403530526,0.0
0.06936515204491044,0.011664391954468722,0.1418773403021503,0.0
0.07176304719007577,0.008415163566489645,0.14192025565150448,0.0
0.06777782056067234,0.012526722255554467,0.1421069374211952,0.0
0.07355503124654665,0.00723123636618094,0.14189852975589393,0.0
0.07048685198865556,0.008509309114135399,0.14207394624637917,0.0
0.07449970537420575,0.003446102553141421,0.1407419610907985,0.0
0.06766436310581721,0.012190909646857935,0.1419194509887041,0.0
0.07318354525369945,0.007624716475572166,0.14188190005801918,0.0
0.06808815218068984,0.010600895953285212,0.14142780201766514,0.0
0.07086987148164171,0.010048629051283484,0.1421069374211952,0.0
0.07069686897955763,0.00909912694682204,0.14182825587132644,0.0
0.07197252773911092,0.005912394036340003,0.141236828713039,0.0
0.07034737710325445,0.008152843493562162,0.14135082260976106,0.0
0.06975729104963434,0.011179180285832915,0.14218123461976465,0.0
0.07350567859478933,0.004384875820264318,0.1407376695558631,0.0
0.06699863874896035,0.013191105507744015,0.14198114180340074,0.0
0.07146854060513265,0.009227872994884609,0.14155896205412888,0.0
0.06949041122083797,0.009439499311387458,0.141868489011346,0.0
0.07268867763145895,0.0050240463047082785,0.14046703463399823,0.0
0.0667730649439174,0.012985648272710834,0.1418840458254869,0.0
0.07407108832253077,0.0038331453601295187,0.14113249076992163,0.0
0.0696733378974602,0.009207488203941369,0.14140017526151838,0.0
0.06983427045753841,0.010852487188874148,0.14195002817511895,0.0
0.07099352133196847,0.008939535491411148,0.14184890888320315,0.0
0.07267285259638459,0.005581677625379279,0.14124997153877872,0.0
0.07103053582078646,0.007449299985086916,0.14130683437667302,0.0
0.0709903026807669,0.007994593142818586,0.1417931189290427,0.0
0.07365561409659553,0.004395336436669402,0.1408395935105793,0.0
0.06760428161672134,0.012740226118591562,0.1420227160480876,0.0
0.07298506176293632,0.00802382922456613,0.14181859991772175,0.0
0.07005099297177708,0.009150625366047068,0.14202244782715415,0.0
0.07449836426953843,0.0037116412772704695,0.14068536647383767,0.0
0.06989327906290042,0.010020197632336334,0.1419422497680485,0.0
0.07239095239531426,0.00563344426553777,0.14104666007121325,0.0
0.0687981329915682,0.010108174098512423,0.1410957445020371,0.0
0.07053888684974752,0.010517747463911471,0.14214448835188012,0.0
0.07089025627258495,0.009192199610733939,0.14211981202600146,0.0
0.07188589237760214,0.006432474426326088,0.14143853085500369,0.0
0.07183653972584482,0.008637786941264504,0.14165525336924234,0.0
0.0702797854280216,0.008713425244501262,0.14193527602377845,0.0
0.07379803941226475,0.004098684084258566,0.14062367565914102,0.0
0.06709493006407381,0.013007642389254856,0.1419881155476708,0.0
0.0715146746056884,0.009424210718180028,0.14166651864844781,0.0
0.06950516337217848,0.009769679280481253,0.1419910659779389,0.0
0.07170806189871572,0.009271056565172263,0.14177407524276678,0.0
0.07074970850344997,0.009095640074687012,0.1420567801066375,0.0
0.07378570124932542,0.004303873098358285,0.14145596521567882,0.0
0.07009846807700015,0.008782626245334893,0.14144121306433832,0.0
0.06957007283807669,0.011627377465650734,0.14190925859323247,0.0
0.07138834254602701,0.008879722223248747,0.14186446569734404,0.0
0.0726535406891752,0.005015463234837441,0.14098443281464967,0.0
0.06802726602879358,0.010850877863273366,0.1415055860883696,0.0
0.06982246873646601,0.011128754750341743,0.1418883373604223,0.0
0.06988067267902763,0.009773702594483208,0.1419401040005808,0.0
0.0718773093077313,0.005905956733936874,0.1412153710383619,0.0
0.06951347822111585,0.008932025305274165,0.14105390203641677,0.0
0.06960869665249546,0.009813667513569296,0.14230542091195833,0.0
0.07244057326800504,0.005235136179344199,0.14123119607343626,0.0
0.0681452832395176,0.010584534476343927,0.14167939325325407,0.0
0.06959904069889077,0.011160941262357385,0.14210237766532632,0.0
0.06998420595934461,0.009724081721792427,0.1419696083032618,0.0
0.07177887222515013,0.006245792656635362,0.14126391902731883,0.0
0.07197520994844556,0.008568854161364336,0.14177005192876482,0.0
0.07048390155838746,0.008250744134276407,0.14195807480312286,0.0
0.07332194725536671,0.004730612603499008,0.14089511524380627,0.0
0.06755922049989944,0.012633474187073016,0.14225928691140258,0.0
0.07177672645768242,0.008577705452168637,0.14195136927978627,0.0
0.06972590920041909,0.009223045018082262,0.14214207436347895,0.0
0.06790254329473297,0.012594045709853854,0.14208226109531655,0.0
0.0720575537750189,0.008490533648792941,0.14167510171831865,0.0
0.07048765665145595,0.00827434757642121,0.1417657603938294,0.0
0.07328010478974638,0.004718274440559679,0.14048366433187298,0.0
0.0674790224407938,0.012806208468223628,0.14204551482743202,0.0
0.0730464843566995,0.00768399330186764,0.14189960263962778,0.0
0.0700641357975168,0.008827687362156791,0.14211712981666683,0.0
0.07370952650422173,0.0038647954302782335,0.14077119717254605,0.0
0.06724245157747884,0.012520016732217875,0.14183657072026382,0.0
0.07157046455984885,0.00947249048620349,0.14145837920408,0.0
0.06935469142850535,0.010002226829794267,0.14191220902350057,0.0
0.07267821701505386,0.004914612163855096,0.14072103985798834,0.0
0.06740794389342593,0.01164159317512431,0.14149432080916413,0.0
0.07041309123195305,0.010253281623516276,0.14182959697599376,0.0
0.06975407239843277,0.009649784523222986,0.141868489011346,0.0
0.07244996100067627,0.00541645353036565,0.14080096969616052,0.0
0.06874636635140971,0.009981037376050637,0.14115743531673375,0.0
0.07035944704526031,0.010608406139422195,0.14172847768407795,0.0
0.0712067569740721,0.008694649779158804,0.1417893638359742,0.0
0.07179872057422644,0.006214142586486648,0.14143289821540095,0.0
0.07019449117118015,0.007923246374517247,0.1408956516856732,0.0
0.06866134031550172,0.011767657013852241,0.14206750894397605,0.0
0.07138297812735774,0.0086200843596559,0.14170675178846737,0.0
0.07139746205776477,0.007195294761096807,0.14145489233194497,0.0
0.07297835623959972,0.005259276063355931,0.14057834632138566,0.0
0.06795833324889342,0.012295247589975309,0.14174671670755348,0.0
0.0717303242361932,0.008528621021344784,0.14133312002815246,0.0
0.06997776865694148,0.00870457395369696,0.14156808156586664,0.0
0.07330719510402621,0.0045876508459628635,0.14037154798168516,0.0
0.06740177481195626,0.012606920314660111,0.1418735852090818,0.0
0.0719770874949798,0.008598090243111877,0.14146320718088234,0.0
0.06972269054921752,0.009359837694148741,0.14178534052197225,0.0
0.07440019540789072,0.0034179393551277346,0.14066203125262633,0.0
0.06787384365485236,0.011625499919116489,0.14178399941730493,0.0
0.07308832682231985,0.00789427851370317,0.14168153902072178,0.0
0.07025457266027602,0.008940876596078466,0.14193447136097806,0.0
0.07464910443414502,0.00310894883977757,0.14083101044070845,0.0
0.06849638444142156,0.01071944960587616,0.14147661822755553,0.0
0.07036481146392959,0.010409117985858678,0.14167510171831865,0.0
0.07005018830897669,0.009565026708248462,0.14178239009170415,0.0
0.07329834381322191,0.004945725792136883,0.14092622887208806,0.0
0.06978062627084568,0.009038777236792712,0.14103244436173967,0.0
0.06978679535231534,0.011295856391889618,0.14154957432145765,0.0
0.07103053582078646,0.009186835192064665,0.14150639075117,0.0
0.07162491340934198,0.006481022415283014,0.14103995454787666,0.0
0.07011187912367334,0.007926733246652275,0.14066122658982594,0.0
0.06902880299434698,0.011746735781042074,0.1418360342783969,0.0
0.07199157142538684,0.008358837170462272,0.14150826829770424,0.0
0.07137975947615617,0.006964892979251501,0.14137549893563972,0.0
0.07222143676536522,0.00565892525421682,0.1404436994127869,0.0
0.06745649188238285,0.013066650994616865,0.14183871648773153,0.0
0.07264066608436895,0.008074254760057301,0.1414701809251524,0.0
0.07053513175667903,0.008209169889589536,0.14173679253301533,0.0
0.07373956724876966,0.004197657608706666,0.1403889823423603,0.0
0.0675337395112204,0.012512774767014356,0.14164613385750457,0.0
0.07249609500123202,0.00817242362170501,0.14128618136479631,0.0
0.06963525052490836,0.009428234032181983,0.1417370607539488,0.0
0.0738825290063058,0.0040327017346265,0.1402605045152312,0.0
0.0677279314670481,0.011894525515380564,0.14152087468157704,0.0
0.0726417389681028,0.008177788040374284,0.14155681628666117,0.0
0.07040343527834836,0.008811325885215507,0.14180679819664935,0.0
0.07457802588677714,0.0031371120377912563,0.14077387938188068,0.0
0.0688305877245173,0.010097445261173876,0.1412566770621153,0.0
0.07017517926397077,0.010686994872927055,0.14141439097099195,0.0
0.07001210093642483,0.009632081941614383,0.14156754512399972,0.0
0.07245264321001091,0.0056642896728860935,0.14072157629985527,0.0
0.06951562398858356,0.009150625366047068,0.14079936037055973,0.0
0.07051233297733461,0.010218949344032923,0.14171479841647128,0.0
0.07173890730606404,0.00804206824804166,0.14148841994862793,0.0
0.07230029371980354,0.00563854046327358,0.14129503265560062,0.0
0.07206506396115589,0.006202609086347709,0.14084495792924856,0.0
0.06845910173167011,0.012055726296392238,0.14186151526707594,0.0
0.07153693694316589,0.008712888802634334,0.1414339710991348,0.0
0.07108552111214651,0.007513404788184737,0.14137952224964168,0.0
0.07329807559228844,0.004643709021056774,0.1403881776795599,0.0
0.06741813628889755,0.012866558178252958,0.1418137719409194,0.0
0.07212675477585254,0.008599967789646123,0.1413003970742699,0.0
0.07049382573292562,0.008445740752904505,0.14162118931069245,0.0
0.07458634073571452,0.0031561557240671785,0.1403498220860746,0.0
0.06762064309366263,0.012239725856748325,0.14159088034521106,0.0
0.07275170955082291,0.007928342572253057,0.1415426005771876,0.0
0.06967494722306099,0.009625644639211254,0.14180062911517968,0.0
0.07422048738247006,0.003690183602593374,0.14046381598279667,0.0
0.0677641412930657,0.011741103141439335,0.14157746929853787,0.0
0.07117215647365528,0.009886891828404883,0.14139212863351447,0.0
0.06970820661881048,0.00974473473366913,0.14180974862691745,0.0
0.0742408721734133,0.0034375194832705833,0.14090798984861252,0.0
0.06912455786759351,0.009775848361950917,0.14140634434298804,0.0
0.07173676153859633,0.009183616540863101,0.14171292086993703,0.0
0.07123492017208578,0.00854069096335065,0.1417311598934126,0.0
0.07224048045164114,0.005735636441187434,0.1411504615724637,0.0
0.0694399856853468,0.009177179238459973,0.14097558152384537,0.0
0.06953064436085753,0.011405558753676265,0.1418100168478509,0.0
0.07186416648199158,0.008217216517593447,0.14180465242918164,0.0
0.0722732034055237,0.00589254568726369,0.14149029749516218,0.0
0.07216001417160203,0.0058890588151286625,0.1408771444412642,0.0
0.06858757955879921,0.011969090934883467,0.1418242325573245,0.0
0.07213855649692494,0.008103759062738306,0.14143584864566905,0.0
0.0709253932148687,0.007470221217897084,0.14162172575255938,0.0
0.07257682950220459,0.005279929075232634,0.14038710479582606,0.0
0.06779310915387977,0.012470664080460558,0.141812967278119,0.0
0.07294777905318486,0.007560343451540882,0.1418668796857452,0.0
0.07000727295962249,0.008680434069685229,0.14174403449821885,0.0
0.07349226754811615,0.0041019027354601304,0.1402900088179122,0.0
0.06754715055789358,0.012182326576987097,0.14171211620713664,0.0
0.07280401263284833,0.00782373640820222,0.14166678686938128,0.0
0.0696682416997244,0.009382636473493154,0.1417443027191523,0.0
0.07386965440149955,0.003970206257129461,0.14041392688917242,0.0
0.06813455440217905,0.011339844624977663,0.14154313701905452,0.0
0.07248938947789543,0.008463443334513107,0.1417893638359742,0.0
0.07042703872049316,0.00911522020282986,0.14190845393043208,0.0
0.0737784592841219,0.004181296131765382,0.14072855004412532,0.0
0.06856612188412212,0.010626376941964262,0.1410506833852152,0.0
0.06981951830619791,0.011293978845355372,0.141801970219847,0.0
0.07024706247413903,0.009773702594483208,0.14173759719581572,0.0
0.07293705021584632,0.005213142062800177,0.14120088710795486,0.0
0.06996784448240333,0.008643151359933777,0.141111301316178,0.0
0.06943274372014328,0.011091203819656828,0.14197738671033225,0.0
0.07180301210916186,0.008069963225121882,0.1420648267346414,0.0
0.0709873522504988,0.007210583354304237,0.14166410466004664,0.0
0.07096804034328942,0.007194490098296416,0.14086051474338945,0.0
0.06841645460324938,0.012491853534204189,0.14195458793098784,0.0
0.07270584377120062,0.007869870408757975,0.1417384018586161,0.0
0.07090661774952624,0.007761777372572109,0.14171640774207206,0.0
0.07374010369063659,0.0044098203670764405,0.14070977457878286,0.0
0.06749323815026738,0.012771607967806813,0.14199884438500934,0.0
0.07264576228210476,0.008222044494395793,0.1415662040193324,0.0
0.07046968584891389,0.00878235802440143,0.14179446003371002,0.0
0.07389406250644474,0.0040321652927595725,0.14048446899467337,0.0
0.06702626550510711,0.012981088516841951,0.1416496207296396,0.0
0.07266212375904604,0.008496434509329142,0.14139293329631486,0.0
0.07035864238245992,0.00923377385542081,0.1417791714405026,0.0
0.07433153084892402,0.0036982302305972855,0.14076797852134448,0.0
0.06786767457338269,0.011759610385848331,0.14149110215796257,0.0
0.07130063430078439,0.009829224327710192,0.14152865308864748,0.0
0.06971652146774786,0.01006284476075706,0.14172338148634211,0.0
0.07247973352429074,0.005483240542798107,0.1407124567881175,0.0
0.06859911305893815,0.01043620830013851,0.1412537266318472,0.0
0.0705944085829745,0.010526062312848845,0.14208682085118543,0.0
0.07125047698622668,0.00881373987361668,0.1418293287550603,0.0
0.0728699949824804,0.005345911424864701,0.14126633301572,0.0
0.07090903173792741,0.008016855480296074,0.14108662499029934,0.0
0.06858060581452916,0.01261121184959553,0.14169709583486267,0.0
0.07099218022730115,0.009449691706859078,0.14135404126096263,0.0
0.07140926377883718,0.007343620937302224,0.14113973273512515,0.0
0.07244110970987197,0.00614011360885067,0.14025031211975958,0.0
0.06867367847844105,0.012390734242288379,0.141772465917166,0.0
0.07261384399102258,0.008213193203591491,0.14153321284451637,0.0
0.07053352243107824,0.00827434757642121,0.14154581922838916,0.0
0.07377363130731955,0.004326135435835771,0.14025782230589656,0.0
0.06722394433306984,0.013241531043235187,0.1417005827069977,0.0
0.07204253340274494,0.008881063327916066,0.14133848444682173,0.0
0.07000807762242288,0.009364397450017624,0.14166866441591552,0.0
0.07348422092011224,0.00456699783408616,0.14019935014240148,0.0
0.06740901677715978,0.012643934803478099,0.1413867642148452,0.0
0.07298023378613397,0.008156062144763726,0.14138488666831095,0.0
0.07008586169312736,0.009584338615457847,0.14140017526151838,0.0
0.07425642898755419,0.004059792048906332,0.14016099454891617,0.0
0.06837702612603022,0.011094422470858392,0.14115904464233453,0.0
0.07063195951365941,0.010444791370009348,0.141255335957448,0.0
0.0700708413208534,0.00964495654642064,0.14135967390056536,0.0
0.07399357247275977,0.004018217804219461,0.14056815392591404,0.0
0.06972295877015099,0.009096444737487403,0.14068027027610186,0.0
0.07096428525022093,0.010015101434600524,0.1413151492256104,0.0
0.07152593988489388,0.008600236010579587,0.1412507762015791,0.0
0.07166353722376075,0.006619424416950275,0.1405936349145931,0.0
0.06999117970361467,0.008545250719219532,0.14015455724651305,0.0
0.06872973665353496,0.01212144042509084,0.1412751843065243,0.0
0.07213641072945723,0.008231968668933949,0.14114536537472788,0.0
0.07202563548393673,0.0065242059855706675,0.1410123277917299,0.0
0.07309690989219068,0.005199194574260066,0.14020605566573807,0.0
0.06806937671534738,0.012553812569834299,0.14133526579562017,0.0
0.07208947206610108,0.008450032287839923,0.14097182643077688,0.0
0.07017383815930345,0.008642078476199922,0.14112068904884922,0.0
0.07375753805131173,0.004315406598497224,0.13989572404572057,0.0
0.06741813628889755,0.012905450213605191,0.14133446113281978,0.0
0.07245827584961365,0.008507699788534617,0.14097504508197845,0.0
0.06994692324959316,0.009197564029403213,0.14136074678429922,0.0
0.07448495322286525,0.0034246448784643266,0.1400958168620845,0.0
0.06761286468659218,0.012233288554345197,0.1411126424208453,0.0
0.07262859614236308,0.008459420020511152,0.1408358384175108,0.0
0.07045251970917221,0.008982987282632264,0.14121134772435995,0.0
0.07415370037003759,0.0035617057754642697,0.1403313148416656,0.0
0.06831211666013201,0.010878504619420125,0.1409045029764775,0.0
0.07048980241892366,0.010352255147964375,0.1411925722590175,0.0
0.07003731370417042,0.009515137614624216,0.14120330109635604,0.0
0.07305265343816916,0.004854262453825767,0.1403720844235521,0.0
0.06991607784224484,0.008784235570935675,0.1405861247284561,0.0
0.07046271210464383,0.01070550211733605,0.14125426307371414,0.0
0.07137090818535187,0.008923174014469864,0.14106731308308995,0.0
0.07193926834336141,0.005940289013420226,0.1408446897083151,0.0
0.07052145248907238,0.007647515254916579,0.1404045391565012,0.0
0.06818310239113598,0.012520284953151339,0.14153428572825022,0.0
0.07115069879897819,0.009073377737209527,0.1414760817856886,0.0
0.07157556075758466,0.00720280494723379,0.14133338824908592,0.0
0.07322860637052135,0.005055964595790457,0.14043806677318416,0.0
0.06749404281306777,0.012756319374599383,0.1416659822065809,0.0
0.07246015339614789,0.008076132306591547,0.14139963881965145,0.0
0.07043535356943054,0.008577437231235174,0.1416925360789938,0.0
0.07360331101457011,0.004326135435835771,0.14032085422526053,0.0
0.06745756476611671,0.012451083952317709,0.14170916577686854,0.0
0.07331658283669744,0.0075622209980751275,0.14151953357690972,0.0
0.07021031620625451,0.009052188283465896,0.14177487990556717,0.0
0.07466975744602172,0.003198802852487904,0.14049788004134656,0.0
0.06796530699316347,0.011549593394946264,0.14150800007677078,0.0
0.0731795219396975,0.0076158651847678645,0.14127089277158889,0.0
0.07051367408200193,0.008939267270477684,0.14175825020769242,0.0
0.07446859174592396,0.003507793367838069,0.14069046267157348,0.0
0.06893787609790278,0.010247112542046612,0.14128913179506442,0.0
0.07109356774015042,0.009879649863201364,0.14149432080916413,0.0
0.07011187912367334,0.009675533732835499,0.14152543443744592,0.0
0.07236842183690331,0.005616546346729558,0.14089082370887085,0.0
0.06945017808081842,0.009078205714011873,0.14095492851196867,0.0
0.06970015999080657,0.011415214707280958,0.1413497497260272,0.0
0.07135454670841058,0.008962870712622488,0.14133043781881782,0.0
0.07257468373473688,0.005809128976956485,0.14107696903669464,0.0
0.07212487722931829,0.006257594377707764,0.1405654717165794,0.0
0.06813589550684637,0.01245993524312201,0.14175959131235974,0.0
0.07133496658026774,0.008721203651571708,0.14148681062302715,0.0
0.07127595797490573,0.007122606888128148,0.14150183099530111,0.0
0.0730775979849813,0.004826099255812079,0.14054589158843656,0.0
0.06784004781723592,0.012319119253053576,0.14156191248439698,0.0
0.07210234667090734,0.008277298006689311,0.14111532463017995,0.0
0.0700552845067125,0.008652002650738079,0.14135189549349492,0.0
0.07393322276273044,0.0037347082775483465,0.1400335896055209,0.0
0.06761796088432799,0.012245090275417599,0.14147071736701933,0.0
0.07288340602915358,0.00789722894397127,0.14137228028443816,0.0
0.07004187346003932,0.009217144157546061,0.14139883415685106,0.0
0.07487253247172027,0.0029045644884782423,0.140391128109828,0.0
0.06803584909866442,0.01141682403288174,0.14139159219164754,0.0
0.07254491121112241,0.008279980216023948,0.14146749871581776,0.0
0.07016284110103144,0.009204269552739805,0.14161555667108972,0.0
0.07319963850970727,0.004455686146698731,0.14044423585465382,0.0
0.06854225022104385,0.010268301995790242,0.14093856703502738,0.0
0.07153076786169622,0.009290368472381648,0.14154018658878642,0.0
0.0710509206117297,0.008669973453280145,0.1416067053802854,0.0
0.07211683060131438,0.005733758894653189,0.14082376847550493,0.0
0.06953118080272445,0.009160817761518688,0.14075108060253627,0.0
0.06904275048288709,0.01164963980312822,0.141469376262352,0.0
0.07140121715083327,0.00852030617240741,0.14143128888980017,0.0
0.07244352369827314,0.005696207963968272,0.14126606479478654,0.0
0.07239792613958432,0.005708814347841065,0.14062448032194141,0.0
0.06873992904900658,0.01168531318727889,0.1416370143457668,0.0
0.07173059245712667,0.008451105171573778,0.1413602103424323,0.0
0.07032243255644233,0.008124143853681546,0.14142538802926397,0.0
0.07206828261235745,0.005705863917572965,0.14020417811920383,0.0
0.06782073591002653,0.01237410454441363,0.14158739347307603,0.0
0.07342789452408487,0.007127166643997031,0.14148225086715827,0.0
0.07060996539711539,0.008302242553501434,0.1417072882303343,0.0
0.07431114605798078,0.003438592367004438,0.14052899366962834,0.0
0.06739292352115196,0.01249051242953687,0.14166946907871591,0.0
0.07275573286482487,0.007919223060515292,0.14158417482187446,0.0
0.0698055708176578,0.009108782900426732,0.141820477464256,0.0
0.07346651833850364,0.003901005256295831,0.1404694486223994,0.0
0.0677552900022614,0.011508287371192857,0.14146079319248117,0.0
0.07207981611249639,0.00879845128040925,0.141742961614485,0.0
0.07005608916951289,0.009487242637543993,0.1415439416818549,0.0
0.07375217363264246,0.0041362350149434825,0.14066605456662828,0.0
0.0694340848248106,0.009506822765686842,0.14144711392487452,0.0
0.07137761370868846,0.009807230211166168,0.1417295505678118,0.0
0.07119736924140087,0.008661122162475844,0.1416659822065809,0.0
0.07288045559888548,0.004923195233725934,0.1410699952924246,0.0
0.06989917992343662,0.00840899448501998,0.14094446789556359,0.0
0.06885311828292826,0.011870117410435367,0.14172552725380985,0.0
0.07106191767000171,0.008869529827777127,0.14159892697321497,0.0
0.0716978695032441,0.006691039406185079,0.1412869860275967,0.0
0.07179335615555717,0.0066073544749444095,0.14049814826228002,0.0
0.06809566236682682,0.012591363500519218,0.1416820754625887,0.0
0.07217262055547483,0.008311362065239199,0.1413792540287082,0.0
0.07091117750539512,0.007548273509535016,0.1415527929726592,0.0
0.07278926048150783,0.005074471840199451,0.1402803528643075,0.0
0.06770781489703832,0.01237920074214944,0.14177595278930102,0.0
0.07272461923654308,0.007730395523356858,0.14150370854183536,0.0
0.07030794862603529,0.008651197987937688,0.14169012209059262,0.0
0.07388091968070502,0.0037781600687694632,0.14043565278478298,0.0
0.06723225918200722,0.012586535523716871,0.14158122439160636,0.0
0.07316959776515934,0.007818371989532946,0.1414908339370291,0.0
0.07007191420458725,0.009033412818123438,0.14177890321956912,0.0
0.07397452878648385,0.003807127929583541,0.1404125857845051,0.0
0.06843603473139223,0.011014760853619677,0.14137952224964168,0.0
0.07210878397331047,0.008897693025790814,0.14143236177353402,0.0
0.070609160734315,0.008937926165810366,0.14173437854461415,0.0
0.07423175266167553,0.003657460648710805,0.14076020011427404,0.0
0.06915915836801033,0.009636105255616338,0.1409938205473209,0.0
0.07044500952303523,0.010308535135809795,0.1418188681386552,0.0
0.07067138799087858,0.00881883607135249,0.1417665650566298,0.0
0.07285846148234146,0.004816979744074314,0.14129851952773564,0.0
0.07057804710603321,0.007729590860556467,0.14106811774589034,0.0
0.06973046895628797,0.011086107621921018,0.141908990372299,0.0
0.07245800762868018,0.007780284616981103,0.14156861800773357,0.0
0.0718566562958546,0.006537080590376924,0.1412212718988981,0.0
0.07211602593851399,0.006010294677054248,0.1403683293304836,0.0
0.0681844434958033,0.012146116750969499,0.14175959131235974,0.0
0.07203797364687606,0.008133263365419311,0.14150960940237156,0.0
0.07020682933411948,0.008135945574753948,0.14160885114775312,0.0
0.07306016362430616,0.004356176180383703,0.1403852272492918,0.0
0.06749216526653352,0.01242721228923944,0.14164988895057307,0.0
0.07212460900838483,0.00840684871755227,0.1413653065401681,0.0
0.07008934856526239,0.008981109736098019,0.1416659822065809,0.0
0.0746869235857634,0.0030166808386660623,0.14036269669088086,0.0
0.06752193779014799,0.012102664959748382,0.1416104604733539,0.0
0.07266266020091297,0.008167059203035737,0.14162199397349284,0.0
0.07020173313638367,0.00884431706003154,0.14174913069595466,0.0
0.07445223026898268,0.0033087734352080147,0.14054025894883382,0.0
0.06864471061762698,0.010465176160952588,0.14127277031812313,0.0
0.07142294304644382,0.009105832470158632,0.14172177216074133,0.0
0.07017678858957155,0.009079815039612655,0.14184166691799963,0.0
0.07322190084718476,0.004200071597107839,0.14093508016289236,0.0
0.06904623735502212,0.009235651401955055,0.1410278846058708,0.0
0.07093370806380607,0.009550810998774887,0.1418403258133323,0.0
0.07184941433065108,0.008020610573364565,0.14181430838278633,0.0
0.07191217802908158,0.006159157295126593,0.14123065963156933,0.0
0.07005877137884753,0.008013905050027973,0.14079211840535621,0.0
0.0686178885242806,0.011979819772222015,0.14180062911517968,0.0
0.07192880772695633,0.008217752959460374,0.14148922461142832,0.0
0.07199827694872343,0.006153792876457319,0.1416222621944263,0.0
0.07300035035614375,0.004870892151700515,0.14088116775526616,0.0
0.06837380747482866,0.011852683049760228,0.14191328190723443,0.0
0.0726986018059971,0.007580191800617194,0.14153026241424826,0.0
0.0700877392396616,0.008443326764503331,0.1417842676382384,0.0
0.07232926158061762,0.005225480225739506,0.14051665550668901,0.0
0.06722957697267258,0.012730838385920333,0.14188645981388806,0.0
0.07319749274223956,0.007513941230051664,0.141631918148031,0.0
0.07004080057630546,0.00873810157037992,0.14189262889535773,0.0
0.07337129990712403,0.004048526769700857,0.14062930829874376,0.0
0.06747875421986034,0.011947633260206373,0.1417598595332932,0.0
0.07172388693379007,0.00878825888493763,0.14174162050981767,0.0
0.06957570547767943,0.009508700312221088,0.14199160241980582,0.0
0.07342682164035101,0.0040892963515873374,0.1407368648930627,0.0
0.06828744033425335,0.010625840500097334,0.14146615761115044,0.0
0.07077733525959673,0.010084570656367618,0.14151980179784318,0.0
0.07053513175667903,0.009072304853475672,0.14191006325603286,0.0
0.07410300661361295,0.003865331872145161,0.1413261462838824,0.0
0.07015479447302753,0.008429111055029756,0.14139668838938335,0.0
0.07009980918166747,0.010281444821529963,0.1422295143877881,0.0
0.07097608697129333,0.008620889022456292,0.142071532257978,0.0
0.07221312191642784,0.005880207524324361,0.14133928910962212,0.0
0.07173810264326365,0.006507844508629383,0.14088948260420353,0.0
0.06943462126667753,0.011251868158801574,0.14201896095501912,0.0
0.0727112081898699,0.007658780534122054,0.14182771942945951,0.0
0.07089588891218769,0.007381171867987139,0.14180518887104857,0.0
0.0716734613982989,0.006012976886388885,0.14074383863733275,0.0
0.0672191163562675,0.012816132642761784,0.14206885004864336,0.0
0.07172040006165505,0.008260668308814563,0.14176334640542823,0.0
0.07052896267520936,0.008012563945360655,0.14186366103454365,0.0
0.0741899101960552,0.0037821833827714185,0.14063064940341108,0.0
0.06727490631042794,0.012444378428981117,0.14185722373214052,0.0
0.07291666542490308,0.007824272850069147,0.1416651775437805,0.0
0.07016847374063417,0.008727372733041373,0.14212893153773923,0.0
0.07373152062076575,0.0038100783598516417,0.14079345951002353,0.0
0.06758067817457654,0.011838735561220117,0.14188082717428532,0.0
0.07282251987725732,0.00811207391167568,0.14192588829110722,0.0
0.07067433842114668,0.008712084139833943,0.1422008147479075,0.0
0.07445196204804921,0.0032350126785055016,0.14126579657385308,0.0
0.06862298472201642,0.010263205798054433,0.1419068446048313,0.0
0.0714127506509722,0.00925710907663215,0.14228745010941626,0.0
0.07064966209526802,0.00887113915337791,0.1422909369815513,0.0
0.07365722342219631,0.004096270095857393,0.14173357388181376,0.0
0.06986699341142098,0.008620889022456292,0.14170406957913273,0.0
0.06964302893197881,0.010980160353202862,0.14225258138806599,0.0
0.07081676373681589,0.009062112458004052,0.14211042429333023,0.0
0.07149241226821092,0.006611377788946365,0.14185615084840666,0.0
0.07048497444212132,0.007445813112951888,0.14127357498092352,0.0
0.06875870451434904,0.011725009885431514,0.14234565405197788,0.0
0.07243413596560191,0.007985205410147357,0.14209567214198973,0.0
0.07176519295754348,0.006570876427993349,0.14211310650266487,0.0
0.07374895498144089,0.004160911340822141,0.1412427295735752,0.0
0.06743637531237308,0.012760879130468266,0.14247520476284084,0.0
0.07165388127015605,0.008627594545792884,0.14201708340848487,0.0
0.06990481256303936,0.008763582559058972,0.14231775907489766,0.0
0.07326186576627085,0.004218042399649906,0.14110727800217604,0.0
0.06729234067110308,0.01251813918568363,0.14237757234306006,0.0
0.07288206492448626,0.007896156060237415,0.1421608498288214,0.0
0.07032699231231121,0.008659512836875062,0.14254306465900715,0.0
0.07489506303013121,0.002646804171419641,0.14129610553933447,0.0
0.06786338303844727,0.011301220810558892,0.14230971244689375,0.0
0.07247007757068605,0.008277834448556239,0.1424060037620072,0.0
0.07024411204387093,0.008988888143168465,0.14238454608733012,0.0
0.07342306654728252,0.004060060269839795,0.14156969089146743,0.0
0.06827724793878173,0.010585875581011246,0.14206509495557487,0.0
0.07032350544017618,0.010381759450645383,0.1423579922149172,0.0
0.07077438482932863,0.008807839013080479,0.14237998633146123,0.0
0.07302475846108894,0.004589796613430573,0.14191676877936946,0.0
0.0702465260322721,0.008122802749014228,0.14176227352169438,0.0
0.07035193685912333,0.01025140407698203,0.14264552505559028,0.0
0.07206855083329092,0.007744611232830433,0.14251731544939464,0.0
0.07118744506686271,0.006719202604198766,0.14202888512955728,0.0
0.07068774946781986,0.007161767144413846,0.14133553401655363,0.0
0.06797281717930045,0.012450279289517318,0.1424998810887195,0.0
0.0720406558562107,0.008294464146430987,0.14210532809559442,0.0
0.0708647752839059,0.007462711031760101,0.14227484372554347,0.0
0.0728640941219442,0.004747778743240684,0.14172230860260826,0.0
0.06746266096385252,0.01257473380264447,0.1427206269169601,0.0
0.07264200718903627,0.00778082105884803,0.14211257006079794,0.0
0.07053915507068098,0.008326650658446628,0.14229844716768827,0.0
0.07467297609722329,0.003038406734276621,0.14111854328138151,0.0
0.06761393757032604,0.01199188971422788,0.14239527492466866,0.0
0.07218925025334957,0.008095175992867468,0.14211793447946722,0.0
0.06942442887120591,0.009324432530931535,0.14233492521463934,0.0
0.07334206382537649,0.004075080642113762,0.14104505074561247,0.0
0.06786257837564688,0.011347354811114646,0.14209030772332046,0.0
0.07162384052560812,0.00891056763059707,0.14229576495835364,0.0
0.06986484764395327,0.00939175598523092,0.14237542657559235,0.0
0.0737578062722452,0.004029483083424936,0.14142243759899586,0.0
0.06920502414763262,0.009665073116430415,0.14191086791883326,0.0
0.07113648308950461,0.00983861206038142,0.14232500104010118,0.0
0.07126630202130103,0.008323700228178528,0.1424009075642714,0.0
0.07261062533982102,0.004936338059465654,0.1416348685782991,0.0
0.07036722545233076,0.00774729344216507,0.14138703243577866,0.0
0.06905428398302603,0.01161825795391297,0.14214180614254548,0.0
0.0709371949359411,0.00901463735278098,0.1419068446048313,0.0
0.07173112889899359,0.006367564960427876,0.1419304480469761,0.0
0.07223082449803644,0.005471438821725705,0.14136047856336575,0.0
0.06862137539641563,0.011403949428075483,0.14245213776256296,0.0
0.07293892776238056,0.0070477732476917805,0.14227350262087615,0.0
0.07099942219250467,0.007457346613090827,0.14203398132729309,0.0
0.07303360975189324,0.004654169637461857,0.14087553511566342,0.0
0.06742350070756682,0.012621940686934077,0.14222039487605034,0.0
0.07201222443726354,0.008527548137610929,0.14151363271637352,0.0
0.06975353595656585,0.008952946538084332,0.14214046503787817,0.0
0.0729445604019833,0.004388094471465882,0.1411024500253737,0.0
0.06744844525437894,0.012043656354386372,0.14228020814421274,0.0
0.07280481729564872,0.007489801346039933,0.14222200420165113,0.0
0.06981361744566171,0.009137482540307348,0.14243684916935553,0.0
0.07465554173654815,0.0032232109574330996,0.1411577035376672,0.0
0.06838990073083648,0.010822982886193143,0.14203344488542616,0.0
0.07217610742760985,0.008362592263530763,0.14227886703954543,0.0
0.07061077005991578,0.008558393544959252,0.14234350828451017,0.0
0.07414002110243094,0.0034675602278185164,0.1415573527285281,0.0
0.06908325184384011,0.009425551822847347,0.14187304876721488,0.0
0.07065261252553612,0.009841830711582985,0.14240627198294067,0.0
0.0711439932756416,0.008432866148098248,0.14244248180895827,0.0
0.07229492930113426,0.005401433158091684,0.14185990594147516,0.0
0.07041443233662037,0.007645369487448869,0.14137147562163777,0.0
0.06959984536169116,0.01097050439959817,0.14234297184264325,0.0
0.07183949015611292,0.008209169889589536,0.14179660580117773,0.0
0.07138136880175695,0.00664597828936318,0.14180009267331276,0.0
0.07184244058638102,0.005734295336520116,0.1409828234890489,0.0
0.06732291785751794,0.012558908767570109,0.14217291977082727,0.0
0.07144761937232248,0.00877726182666562,0.14195324682632052,0.0
0.07029078248629361,0.008208097005855682,0.14207636023478035,0.0
0.07232952980155108,0.005217970039602523,0.1409916747798532,0.0
0.06765148850101095,0.012194396518992963,0.14229952005142213,0.0
0.07348556202477956,0.006853581291864072,0.14206455851370794,0.0
0.07053566819854595,0.008213997866391883,0.14240063934333794,0.0
0.07483551798290228,0.0027251246839910368,0.1411357094211232,0.0
0.06771559330410877,0.011762292595182968,0.14223970678325973,0.0
0.07209295893823611,0.008264423401883055,0.14212437178187035,0.0
0.0697811627127126,0.00931236258892567,0.14241002707600917,0.0
0.07393214987899659,0.0036231283692274535,0.14130361572547145,0.0
0.06780705664241989,0.011051775342437665,0.14208789373491928,0.0
0.07080227980640885,0.00965890403496075,0.1420412232924966,0.0
0.07037822251060277,0.009164304633653716,0.14217023756149264,0.0
0.07346222680356822,0.004308701075160632,0.14133553401655363,0.0
0.06930238834647993,0.009333820263602764,0.14158551592654178,0.0
0.07059494502484143,0.01038953785771583,0.1423070302375591,0.0
0.07153049964076276,0.0083231637863116,0.14210961963052984,0.0
0.07287160430808118,0.0052748328774968245,0.1416887809859253,0.0
0.07135642425494483,0.006897301304018652,0.14157746929853787,0.0
0.06849423867395385,0.012154699820840338,0.14218472149189967,0.0
0.07122311845101338,0.008878112897647965,0.14195834302405633,0.0
0.07167238851456505,0.006286830459455307,0.14227484372554347,0.0
0.07267660768945308,0.004974961873884424,0.1414457728202072,0.0
0.06828770855518682,0.011776776525590006,0.14262218983437894,0.0
0.07296628629759386,0.007205218935634963,0.14238776473853168,0.0
0.07024518492760479,0.008290172611495568,0.14220725205031062,0.0
0.07251487046657448,0.0052764422030976066,0.1410699952924246,0.0
0.06755385608123017,0.01252913624395564,0.14245026021602872,0.0
0.07346785944317095,0.007179737946955913,0.14220027830604057,0.0
0.07059199459457333,0.008379490182338975,0.1426506212533261,0.0
0.07515604199839138,0.0025290551816290834,0.14136584298203503,0.0
0.06787518475951967,0.011665196617269113,0.14246528058830268,0.0
0.07309583700845683,0.007876575932094567,0.14238669185479783,0.0
0.07056383139655964,0.008654416639139252,0.14264418395092296,0.0
0.07413760711402977,0.0033082369933410873,0.14151685136757508,0.0
0.0681090734135,0.010792405699778284,0.1420315673388919,0.0
0.07197199129724399,0.008844048839098076,0.14228557256288202,0.0
0.07071913131703511,0.008658976395008134,0.14272572311469592,0.0
0.07325167337079923,0.00425398400473404,0.1417872180685065,0.0
0.06956524486127434,0.008847535711233104,0.14191113613976672,0.0
0.06940914027799848,0.01105365288897191,0.14243443518095436,0.0
0.07093236695913875,0.008731396047043328,0.14231319931902878,0.0
0.07272730144587772,0.005415917088498722,0.14213751460761007,0.0
0.07177189848088007,0.006307483471332011,0.14175717732395857,0.0
0.06908378828570703,0.01129531995002269,0.14282791529034558,0.0
0.07202053928620092,0.007856995803951716,0.14263291867171748,0.0
0.07141999261617572,0.006789744709699715,0.14251329213539268,0.0
0.07323209324265638,0.004664362032933477,0.14149512547196452,0.0
0.06833813409067799,0.011934222213533189,0.14263747842758637,0.0
0.07295555746025531,0.007730395523356858,0.14223782923672548,0.0
0.07022667768319579,0.008286149297493613,0.14269058617241218,0.0
0.07264361651463705,0.00460562164850493,0.14155627984479424,0.0
0.06685728631702499,0.012813986875294074,0.14260421903183687,0.0
0.07214445735746114,0.008137554900354732,0.14256425411275078,0.0
0.07024840357880635,0.008680702290618693,0.14263989241598754,0.0
0.07504982650873976,0.0027857426149538295,0.14132185474894698,0.0
0.06788189028285627,0.011497826754787773,0.14234002141237515,0.0
0.07209215427543572,0.008595944475644168,0.142167555352158,0.0
0.07014594318222322,0.008960456724221315,0.14252536207739855,0.0
0.07337237279085788,0.004301190889023648,0.1413527001562953,0.0
0.06842181902191866,0.010570318766870352,0.14184837244133622,0.0
0.07159916419972946,0.009246648460227066,0.1421106925142637,0.0
0.07081542263214857,0.008812666989882825,0.14208977128145353,0.0
0.07325730601040197,0.0046573882886634214,0.1414243151455301,0.0
0.07011402489114105,0.00834488968192216,0.14165981312511122,0.0
0.0703374529287163,0.010217608239365605,0.1421903541315024,0.0
0.07150635975675103,0.008378149077671657,0.14209754968852398,0.0
0.07213238741545527,0.00597623061850436,0.1417174806258059,0.0
0.07181427738836733,0.006280124936118714,0.14111666573484727,0.0
0.06898642408685972,0.011449278765830845,0.14205356145543593,0.0
0.07268224032905582,0.007405043531065409,0.14219303634083705,0.0
0.07169330974737521,0.006563902683723293,0.14217157866615995,0.0
0.07364488525925698,0.004251301795399403,0.1411429513863267,0.0
0.06741894095169794,0.012577147791045643,0.14249156623978212,0.0
0.07155651707130874,0.008485973892924058,0.1420575847694379,0.0
0.06993619441225461,0.008667827685812436,0.14229469207461978,0.0
0.07281554613298727,0.0047697728597847055,0.14104075921067705,0.0
0.0676083049307233,0.012209953333133856,0.142485128937379,0.0
0.07366366072459944,0.006930828920701614,0.14237489013372542,0.0
0.07047049051171428,0.008467466648515063,0.14260743768303843,0.0
0.07467485364375753,0.0028793517207326555,0.14145435589007804,0.0
0.06771344753664106,0.011431307963288779,0.1425028315189876,0.0
0.07217235233454136,0.008310557402438808,0.14250470906552185,0.0
0.07013226391461658,0.009158135552184051,0.14243684916935553,0.0
0.07440529160562653,0.003326476016816618,0.1415801515078725,0.0
0.0693329655328948,0.009528280440363936,0.14207019115331068,0.0
0.07160935659520108,0.009202392006205559,0.14242853432041816,0.0
0.07075775513145388,0.008813203431749753,0.14243175297161972,0.0
0.07384551451748782,0.004249960690732085,0.14174349805635192,0.0
0.07084009895802723,0.007594139289157306,0.14176710149849672,0.0
0.07035113219632294,0.010316045321946778,0.14261387498544156,0.0
0.07158092517625393,0.008161694784366463,0.14233251122623816,0.0
0.07180918119063152,0.006192684911809553,0.14191596411656907,0.0
0.0717332746664613,0.006205023074748882,0.14134331242362408,0.0
0.06811041451816732,0.012032122854247434,0.14271445783549044,0.0
0.0716793622588351,0.008226067808397748,0.14252750784486626,0.0
0.0712392117070212,0.0072400876569852415,0.14227269795807576,0.0
0.07314733542768186,0.004960477943477385,0.14113892807232475,0.0
0.06779096338641206,0.012462349231523184,0.1424695721232381,0.0
0.0731285599623394,0.007524133625523285,0.14214582945654744,0.0
0.06997964620347573,0.008738638012246848,0.14251007348419112,0.0
0.07279408845831017,0.004601061892636048,0.1412006188870214,0.0
0.06716627683237515,0.012714745129912513,0.14255406171727916,0.0
0.07296977316972889,0.00781568978019831,0.14236791638945537,0.0
0.07026932481161652,0.008627594545792884,0.14262862713678207,0.0
0.0748213022734287,0.0025580230424431614,0.14165391226457502,0.0
0.06825096228730229,0.011073501238048225,0.14250256329805414,0.0
0.07186684869132622,0.008974940654628354,0.14222254064351805,0.0
0.07004401922750703,0.009198636913137067,0.14232526926103464,0.0
0.07420600345206302,0.00364109917176952,0.1417813172079703,0.0
0.06931338540475195,0.009561808057046898,0.1421393921541443,0.0
0.07052440291934048,0.010311753787011359,0.14223514702739085,0.0
0.07119763746233433,0.008585752080172548,0.1426490119277253,0.0
0.07326615730120627,0.004639149265187891,0.14214743878214822,0.0
0.07016498686849915,0.008011222840693336,0.14194627308205046,0.0
0.06888342724840965,0.011560054011351347,0.14261602075290927,0.0
0.07130546227758673,0.008626789882992493,0.1424009075642714,0.0
0.07257736594407152,0.005513549508279503,0.1423381438658409,0.0
0.07250521451296979,0.005432815007306934,0.14161957998509167,0.0
0.06834054807907916,0.012105615390016483,0.14242290168081542,0.0
0.07189769409867454,0.008469612415982772,0.14235852865678414,0.0
0.07092432033113484,0.0074530550781554085,0.14236737994758844,0.0
0.07322592416118671,0.004673213323737779,0.14118184342167894,0.0
0.0677456340486567,0.0125028505924762,0.1425744465082224,0.0
0.07306043184523962,0.007708937848679763,0.14231480864462956,0.0
0.07031626347497266,0.008338720600452494,0.14268119843974095,0.0
0.07346920054783827,0.003977448222332981,0.1413240005164147,0.0
0.06728027072909722,0.012283177647969441,0.1427273324402967,0.0
0.07293141757624358,0.007596285056625016,0.14293010746599524,0.0
0.07031787280057344,0.00864851577860305,0.14277132067338474,0.0
0.07495889961229557,0.0027245882421241094,0.14152650732117977,0.0
0.0683166764160009,0.010936172120114818,0.1424703767860385,0.0
0.07153210896636354,0.009296001111984385,0.14248244672804436,0.0
0.07048282867465361,0.00875687703572238,0.14281048092967044,0.0
0.07329190651081878,0.003954649442988568,0.14178990027784114,0.0
0.06904033649448592,0.009501994788884496,0.14221905377138302,0.0
0.07131297246372371,0.0094236742763131,0.14294754182667038,0.0
0.07150528687301717,0.008032144073503503,0.14288960610504223,0.0
0.07322941103332174,0.0048628455236966045,0.14227672127207772,0.0
0.07128185883544193,0.007133603946400159,0.14236952571505615,0.0
0.06976560589857171,0.010776044222836997,0.14319296398078965,0.0
0.0723544743483632,0.007618547394102501,0.14299287116442574,0.0
0.072223046090966,0.005911589373539612,0.14282737884847865,0.0
0.07204682493768036,0.0058965690012656455,0.142138051049477,0.0
0.06763941855900509,0.012479783592198323,0.14318464913185228,0.0
0.07141999261617572,0.00851601463747199,0.1428233555344767,0.0
0.07024706247413903,0.008068085678587637,0.14299501693189345,0.0
0.0724180427095941,0.0051924890509234736,0.1418344249527961,0.0
0.0675484916625609,0.01245403438258581,0.14327208915616144,0.0
0.07296467697199308,0.007362664623578145,0.1431253723055568,0.0
0.07052252537280623,0.008146406191159033,0.1432133487717329,0.0
0.07487870155318993,0.0025539997284412057,0.14200528168741247,0.0
0.0675956985468505,0.01193207644606548,0.1429164281983886,0.0
0.07226918009152175,0.008579851219636347,0.14253045827513436,0.0
0.06997830509880841,0.009123266830833771,0.14300172245523005,0.0
0.07454047495609223,0.003207385922358742,0.14184434912733426,0.0
0.06850174886009083,0.01038658742744773,0.14270802053308732,0.0
0.07187462709839666,0.008641542034332995,0.14281021270873698,0.0
0.07020361068291792,0.009100199830555895,0.14294673716387,0.0
0.07370925828328827,0.004094928991190075,0.1422458758647294,0.0
0.06945125096455228,0.009176374575659582,0.14246393948363537,0.0
0.06979430553845233,0.010704965675469122,0.14304946578138658,0.0
0.07094068180807613,0.008628935650460202,0.14285902891862737,0.0
0.0724719551172203,0.00524908366788431,0.1423912516106667,0.0
0.07057911998976707,0.007676751336664121,0.14199052953607197,0.0
0.06933403841662865,0.01141896980034945,0.14305241621165468,0.0
0.07254732519952359,0.007567317195810937,0.1430095008623005,0.0
0.07144976513979019,0.006908298362290665,0.14272304090536128,0.0
0.07284907374967023,0.005255789191220903,0.14193366669817767,0.0
0.06815708496059,0.012134046808963633,0.14329488793550585,0.0
0.07214660312492885,0.008004517317356744,0.14301915681590519,0.0
0.07087577234217791,0.007720203127885237,0.14306099928152552,0.0
0.07417891313778319,0.0040246551066225895,0.14176763794036365,0.0
0.06782663677056273,0.012279958996767877,0.14289094720970955,0.0
0.07346759122223749,0.007224530842844348,0.14261494786917542,0.0
0.07023660185773395,0.008624912336458247,0.1429105273378524,0.0
0.07415262748630373,0.0032489601670456134,0.1419977715012755,0.0
0.06756351203483486,0.011723668780764196,0.14314709820116736,0.0
0.07249689966403242,0.008087665806730485,0.14262782247398167,0.0
0.07031492237030534,0.008759022803190089,0.14300145423429658,0.0
0.07450265580447385,0.0034434203438067842,0.14180143377798007,0.0
0.06866777761790485,0.010412068416126779,0.1425301900542009,0.0
0.07216725613680555,0.008561343975227353,0.14293520366373105,0.0
0.07054183728001562,0.008907885421262434,0.14296309864081128,0.0
0.07293544089024553,0.004683942161076326,0.14201118254794867,0.0
0.06969023581626842,0.008858264548571653,0.14237998633146123,0.0
0.06969157692093574,0.010935367457314427,0.1431897453295881,0.0
0.07081944594615053,0.008904130328193942,0.1428810230351714,0.0
0.07244030504707158,0.005659461696083747,0.14248191028617743,0.0
0.07123492017208578,0.0069479950604432895,0.142156558293886,0.0
0.06874582990954278,0.011761219711449113,0.14307253278166446,0.0
0.07229707506860197,0.007751316756167025,0.14280806694126927,0.0
0.07171101232898382,0.006486655054885751,0.1428263059647448,0.0
0.07333482186017297,0.004439324669757446,0.1419599523496571,0.0
0.0680433592848014,0.0120050325399676,0.14316506900370943,0.0
0.07215250398546505,0.007944167607327414,0.14293976341959994,0.0
0.07031760457963998,0.008219094064127692,0.14307870186313412,0.0
0.07382217929627648,0.003619641497092425,0.1416718830671171,0.0
0.06780196044468408,0.011981429097822797,0.14334853212219859,0.0
0.07371006294608866,0.006800205326104799,0.1431578270385059,0.0
0.07022533657852847,0.008695186221025731,0.14333968083139428,0.0
0.0737274973067638,0.0040356521648946,0.14184676311573544,0.0
0.06739480106768621,0.012081743726938215,0.14297060882694826,0.0
0.07139477984843014,0.009346963089342485,0.14268978150961178,0.0
0.06975648638683395,0.009451837474326787,0.14312134899155485,0.0
0.07420198013806106,0.003095001351237458,0.14247815519310894,0.0
0.06890193449281865,0.009938122026696446,0.1429105273378524,0.0
0.07173193356179398,0.009049506074131259,0.14311705745661943,0.0
0.07057026869896277,0.00880864367588087,0.14325733700482093,0.0
0.07368002220154073,0.0038873259886891827,0.14260824234583883,0.0
0.06976453301483786,0.008655221301939643,0.1426675191721343,0.0
0.06988925574889847,0.010578365394874263,0.14319376864359004,0.0
0.07133738056866891,0.008323700228178528,0.14316587366650982,0.0
0.07213104631078796,0.005609572602459503,0.14279465589459608,0.0
0.07091466437753015,0.007003785014603736,0.14225714114393487,0.0
0.06880483851490479,0.01166492839633565,0.14327396670269568,0.0
0.07195992135523811,0.007944704049194342,0.14296014821054318,0.0
0.07085941086523662,0.007342816274501833,0.14275951895231234,0.0
0.07221285369549438,0.005618692114197268,0.14191462301190175,0.0
0.06799427485397755,0.01212868239029436,0.14329408327270546,0.0
0.07322646060305364,0.007107854736787646,0.14294190918706765,0.0
0.07081944594615053,0.007773310872711047,0.14314575709650004,0.0
0.07462523277106675,0.003118873014315726,0.14189101956975694,0.0
0.0672553261822851,0.01239153890508877,0.1430108419669678,0.0
0.07152754921049466,0.008718789663170535,0.1425575485894142,0.0
0.06948772901150334,0.009210975076076397,0.1428949705237115,0.0
0.07331416884829627,0.004241645841794711,0.14143504398286866,0.0
0.06747204869652375,0.011969090934883467,0.1429370812102653,0.0
0.07181642315583504,0.008748830407718467,0.1432605556560225,0.0
0.07008103371632501,0.00888508664191802,0.1432441941790812,0.0
0.07384605095935474,0.0034364465995367285,0.14209111238612085,0.0
0.06873188242100267,0.01005774856302125,0.14253260404260207,0.0
0.07072476395663785,0.010062040097956668,0.14274476680097184,0.0
0.0709844018202307,0.008680970511552156,0.14281504068553932,0.0
0.07382888481961307,0.003984958408469964,0.14207475090917956,0.0
0.07070893892156349,0.007655830103853953,0.14211981202600146,0.0
0.0701395058798201,0.010631204918766608,0.14284937296502268,0.0
0.07170537968938108,0.008173496505438865,0.14294539605920267,0.0
0.07208464408929874,0.005936802141285198,0.14265437634639458,0.0
0.07193900012242795,0.006063134200946593,0.14205919409503867,0.0
0.06897596347045463,0.011552543825214364,0.14325036326055088,0.0
0.07297057783252928,0.007142723458137924,0.14309479511914194,0.0
0.07128400460290964,0.007194758319229879,0.14295612489654122,0.0
0.07297674691399894,0.004912466396387386,0.14212866331680576,0.0
0.0673682471952733,0.01287916456212575,0.1433107129705802,0.0
0.07180086634169415,0.008595944475644168,0.14283381615088178,0.0
0.07032645587044428,0.00824806192494177,0.14329864302857434,0.0
0.07446188622258737,0.0028833750347346107,0.14231641797023034,0.0
0.06750557631320671,0.011848123293891346,0.1434480420885136,0.0
0.07300115501894414,0.007411212612535073,0.1433115176333806,0.0
0.07035756949872607,0.00883412466455992,0.14340110342515747,0.0
0.0740472166594525,0.003995419024875047,0.14195807480312286,0.0
0.06780383799121832,0.01183900378215358,0.1431068650611478,0.0
0.07255188495539247,0.008483023462655958,0.14341987889049992,0.0
0.07065770872327193,0.008666754802078581,0.14336113850607138,0.0
0.07440153651255804,0.00319558420128634,0.14276193294071352,0.0
0.06923291912471284,0.00968492146550673,0.1431784800503826,0.0
0.07082159171361824,0.010074378260895998,0.14326243320255674,0.0
0.07083044300442254,0.008994252561837739,0.1432656518537583,0.0
0.07342628519848408,0.00486981926796666,0.14276890668498357,0.0
0.07084492693482958,0.007879794583296131,0.1428284517322125,0.0
0.06991205452824288,0.011184544704502189,0.14349444431000283,0.0
0.07216108705533589,0.007828296164071102,0.14333699862205965,0.0
0.07224208977724192,0.005881548628991679,0.1430368593975138,0.0
0.07179845235329298,0.006140650050717598,0.14233841208677436,0.0
0.06875199899101245,0.011595727395502017,0.14356230420616914,0.0
0.0722643521147194,0.007788599465918477,0.14336703936660758,0.0
0.07064993031620148,0.007775188419245293,0.1432066432483963,0.0
0.07320714869584426,0.004680723509874762,0.14186446569734404,0.0
0.06742484181223414,0.012750150293129718,0.1433691851340753,0.0
0.07180623076036342,0.008736492244779138,0.1427509358824415,0.0
0.07004267812283971,0.008794159745473831,0.1433241240172534,0.0
0.07449004942060106,0.0032012168408890773,0.14227672127207772,0.0
0.06761071891912447,0.012022198679709278,0.14348532479826506,0.0
0.07285202417993833,0.007780016396047639,0.14360119624152137,0.0
0.07012555839127999,0.009004176736375897,0.14367066546328847,0.0
0.07367385312007106,0.004186124108567728,0.1422702839696746,0.0
0.06756485313950218,0.011776508304656543,0.14326323786535713,0.0
0.07091090928446166,0.010006250143796223,0.1433447770291301,0.0
0.07001639247136025,0.00939175598523092,0.14352582615921808,0.0
0.07456220085170279,0.003151595968198296,0.14275522741737692,0.0
0.06958026523354831,0.00909403074908623,0.14319081821332194,0.0
0.07049972659346182,0.010303438938073985,0.14359100384604975,0.0
0.07118503107846154,0.008473635729984727,0.1436231903580654,0.0
0.07293007647157626,0.005207777644130903,0.14307601965379949,0.0
0.07068801768875332,0.007605941010229708,0.1429290345822614,0.0
0.06938365928931943,0.010933221689846718,0.1437760762901397,0.0
0.07196072601803852,0.007847608071280487,0.14333190242432384,0.0
0.07193873190149448,0.0060207552934593315,0.14340941827409484,0.0
0.07158172983905432,0.006017268421324304,0.14284588609288765,0.0
0.06822011687995397,0.011959971423145702,0.14394559192008877,0.0
0.07249502211749817,0.00753325313726105,0.14357088727603998,0.0
0.07049623972132679,0.00771966668601831,0.1436821989634274,0.0
0.07263074190983079,0.0049526995364069385,0.14247279077443967,0.0
0.06732640472965297,0.01251089722048011,0.1438527874771103,0.0
0.07171718141045348,0.008533180777213666,0.14345877092585216,0.0
0.06967467900212752,0.008905203211927797,0.1438468866165741,0.0
0.07298720753040402,0.004431278041753536,0.1424526742044299,0.0
0.06727061477549252,0.01224160340328257,0.14370124264970333,0.0
0.07297647869306548,0.007417381694004738,0.14363445563727087,0.0
0.0703159952540392,0.008706183279297742,0.14382489250003008,0.0
0.07512197793984149,0.002695620381310032,0.14266269119533195,0.0
0.06842986564992257,0.01089996229409722,0.1434694997631907,0.0
0.07055095679175338,0.010179789087747226,0.14343221705343925,0.0
0.06976962921257367,0.009642542558019466,0.14372296854531388,0.0
0.07312882818327286,0.004704863393886495,0.14285902891862737,0.0
0.06944320433654837,0.00931826344946187,0.14313261427076032,0.0
0.07089159737725227,0.010234237937240355,0.14358590764831394,0.0
0.07161793966507192,0.008310557402438808,0.14386405275631578,0.0
0.07296065365799112,0.004819393732475487,0.14337562243647842,0.0
0.07091841947059864,0.0072333821336486494,0.14299367582722614,0.0
0.06921521654310424,0.01126179233333973,0.14393030332688134,0.0
0.07138378279015813,0.008560539312426962,0.1435647181945703,0.0
0.07188776992413638,0.006336183111212625,0.1437205545569127,0.0
0.07204709315861382,0.005747974604126764,0.14290811334945122,0.0
0.06778372142120855,0.012613625837996703,0.14394344615262106,0.0
0.07245800762868018,0.008058429724982944,0.1434458963210459,0.0
0.07065019853713495,0.007823199966335292,0.14369802399850176,0.0
0.07287991915701855,0.004661411602665377,0.14246930390230464,0.0
0.06782717321242966,0.012189568542190617,0.14396517204823162,0.0
0.07372964307423151,0.006918222536828821,0.1437264554174489,0.0
0.06998313307561076,0.00896448003822327,0.14384635017470718,0.0
0.07293597733211246,0.004741073219904092,0.14241753726214615,0.0
0.06713033522729102,0.012618722035732513,0.14365376754448025,0.0
0.071982988355516,0.008828760245890646,0.1434496514141144,0.0
0.07021863105519188,0.00887113915337791,0.14372565075464852,0.0
0.07493100463521535,0.0027076903233158975,0.1427222362425609,0.0
0.06843683939419262,0.010659368116780296,0.14372699185931584,0.0
0.07161740322320499,0.008975477096495281,0.14373128339425126,0.0
0.07082266459735209,0.008811325885215507,0.14376025125506534,0.0
0.0736432759336562,0.004850507360757275,0.14284159455795223,0.0
0.06982220051553255,0.009289295588647793,0.1430604628396586,0.0
0.07060540564124651,0.010106296551978177,0.14370258375437064,0.0
0.07112709535683338,0.008632690743528694,0.14349632185653707,0.0
0.0721632328228036,0.006024778607461287,0.1430368593975138,0.0
0.07128266349824232,0.007218629982308147,0.14273940238230257,0.0
0.06874207481647429,0.011944146388071345,0.14374979063866025,0.0
0.07197842859964712,0.008435011915565957,0.14333404819179155,0.0
0.07150823730328527,0.00713145817893245,0.14325009503961741,0.0
0.07224772241684466,0.005861700279915366,0.14249585777471754,0.0
0.06832713703240598,0.012232215670611342,0.1436851493936955,0.0
0.07327232638267593,0.007362396402644682,0.14361326618352724,0.0
0.07083688030682567,0.007963211293603336,0.1436261407883335,0.0
0.07385677979669329,0.003931582442710691,0.14232285527263347,0.0
0.06719309892572152,0.012846173387309718,0.14369319602169942,0.0
0.0717694844924789,0.008806229687479697,0.1436467938002102,0.0
0.06987691758595914,0.00919005384326623,0.14397724199023748,0.0
0.07458070809611178,0.00310680307230986,0.14271874937042586,0.0
0.06794277643475252,0.011491925894251572,0.1438270382674978,0.0
0.07309556878752337,0.007671923359861775,0.14378358647627668,0.0
0.07036588434766344,0.009001762747974724,0.1439874343857091,0.0
0.07299284017000676,0.00458228642729359,0.1428153089064728,0.0
0.06798569178410671,0.01094502341091912,0.1434657446701222,0.0
0.07033396605658127,0.010148407238531975,0.14367951675409277,0.0
0.07019797804331518,0.00931236258892567,0.1436438433699421,0.0
0.0739785521004858,0.004138380782411192,0.1429799965596195,0.0
0.07039887552247948,0.008446008973837968,0.14310069597967814,0.0
0.07024464848573786,0.010844708781803701,0.14371063038237455,0.0
0.07176894805061197,0.008331210414315511,0.1436969511147679,0.0
0.07227803138232605,0.006017804863191231,0.1431283227358249,0.0
0.0716292049442774,0.006570071765192958,0.14274235281257067,0.0
0.06923533311311401,0.011203051948911184,0.14366288705621802,0.0
0.07256395489739834,0.007481754718036022,0.14348854344946663,0.0
0.07170779367778225,0.006656438905768264,0.14340995471596177,0.0
0.0727230099109423,0.005275369319363752,0.142485128937379,0.0
0.067802496886551,0.012618185593865586,0.14364867134674444,0.0
0.07252157598991107,0.007741929023495796,0.1432605556560225,0.0
0.07030580285856758,0.008233309773601268,0.14350007694960557,0.0
0.07339409868646844,0.0043250625521019164,0.1420656313974418,0.0
0.06742108671916565,0.012458594138454692,0.1434067360647602,0.0
0.07227266696365678,0.008421064427025846,0.14295076047787195,0.0
0.06986672519048752,0.009521574917027344,0.14323158779520842,0.0
0.07357541603748989,0.004358321947851413,0.1421528032008175,0.0
0.06739909260262163,0.012036682610116317,0.14355211181069752,0.0
0.07229385641740041,0.008386195705675567,0.14386110232604768,0.0
0.07030821684696875,0.009029389504121483,0.1437406711269225,0.0
0.07384175942441933,0.003829658487994491,0.14289899383771346,0.0
0.06853393537210647,0.010398657369453595,0.14330615321471132,0.0
0.07135025517347517,0.009784699652755219,0.14342202465796763,0.0
0.07097689163409372,0.008863628967240926,0.14354352874082668,0.0
0.07371328159729022,0.004361272378119513,0.14296631729201284,0.0
0.07014487029848937,0.008583606312704838,0.14290489469824966,0.0
0.06984634039954428,0.010852487188874148,0.14353628677562316,0.0
0.07109142197268271,0.008951873654350477,0.1434547476118502,0.0
0.07247088223348644,0.005973548409169723,0.14316936053864485,0.0
0.0722858097893965,0.006020218851592404,0.1426334551135844,0.0
0.06888610945774429,0.011827470282014642,0.14374120756878941,0.0
0.07275734219042565,0.007535398904728759,0.1435250214964177,0.0
0.07158172983905432,0.007050455457026417,0.14349659007747054,0.0
0.07364890857325894,0.004332840959172363,0.1426822713234748,0.0
0.06773866030438665,0.012408705044830446,0.1436792485331593,0.0
0.0722495999633789,0.0081702778542373,0.143101768863412,0.0
0.07053084022174361,0.008325577774712774,0.14360119624152137,0.0
0.07357675714215721,0.004023582222888735,0.1422206630969838,0.0
0.0676319083728681,0.012121976866957767,0.1435692779504392,0.0
0.07360894365417285,0.007246793180321834,0.14339252035528663,0.0
0.07004321456470664,0.009163499970853325,0.14348693412386584,0.0
0.07315833248595387,0.004532665554602808,0.1421452930146805,0.0
0.06742752402156878,0.011982233760623188,0.14327128449336105,0.0
0.0720487024842146,0.008950264328749695,0.14318250336438457,0.0
0.07041309123195305,0.008951873654350477,0.14358242077617892,0.0
0.07347483318744101,0.0038639907674778424,0.14307387388633178,0.0
0.06872142180459759,0.010036559109277619,0.14330990830777982,0.0
0.07083527098122488,0.010082693109833372,0.14341451447183065,0.0
0.07058743483870444,0.009024293306385673,0.14337991397141384,0.0
0.07217986252067835,0.005703449929171792,0.14278553638285832,0.0
0.06964302893197881,0.00878316268720182,0.1429164281983886,0.0
0.07014594318222322,0.01062986381409929,0.14378358647627668,0.0
0.07204441094927919,0.007985473631080821,0.14363847895127282,0.0
0.07193175815722443,0.006168276806864358,0.14334960500593244,0.0
0.07143876808151818,0.0065829463699992145,0.1425891986595629,0.0
0.06833786586974452,0.011955679888210283,0.14383830354670327,0.0
0.07164422531655136,0.008376807973004339,0.14330320278444322,0.0
0.07082320103921902,0.007813275791797136,0.14375435039452913,0.0
0.0736491767941924,0.004420817425348451,0.14274530324283877,0.0
0.06745193212651397,0.012659759838552456,0.14389892147766606,0.0
0.07258031637433962,0.00785431359461708,0.1434799603795958,0.0
0.07065368540926997,0.008130581156084674,0.14374040290598902,0.0
0.07487736044852261,0.0028412643481808123,0.14249800354218525,0.0
0.06742698757970185,0.01227137592689704,0.14385037348870913,0.0
0.0721683290205394,0.008260131866947636,0.14392440246634514,0.0
0.06986162899275171,0.009028048399454165,0.14382569716283047,0.0
0.07372266932996145,0.0039339964311118645,0.14239447026186827,0.0
0.0678328058520324,0.011448742323963918,0.14342175643703417,0.0
0.07173247000366091,0.009314776577326843,0.143238293318545,0.0
0.07034576777765367,0.009132654563505002,0.14353145879882082,0.0
0.0738227157381434,0.0037092272888692964,0.14303364074631222,0.0
0.06928575864860519,0.009259523065033323,0.14326672473749216,0.0
0.07120192899726975,0.009442181520722095,0.14387558625645472,0.0
0.0713743950574869,0.008219094064127692,0.1436623506143511,0.0
0.0734756378502414,0.004501820147254485,0.14304919756045312,0.0
0.07098869335516612,0.007367760821313955,0.14286278401169586,0.0
0.06951937908165205,0.011176498076498278,0.1436253361255331,0.0
0.07223216560270376,0.007699550116008534,0.1435470156129617,0.0
0.07173381110832823,0.006487191496752679,0.1433313659824569,0.0
0.07269967468973096,0.005261690051757104,0.14260207326436916,0.0
0.06886357889933334,0.01142406599808526,0.14363177342793623,0.0
0.0730923501363218,0.007091761480779824,0.14338152329701462,0.0
0.07079691538773958,0.007739783256028087,0.14367978497502623,0.0
0.07380072162159938,0.00417029907349337,0.1424089541922753,0.0
0.06814286925111643,0.011840344886820899,0.14370177909157025,0.0
0.07366231961993212,0.006585092137466924,0.14325277724895205,0.0
0.07028997782349322,0.008418113996757745,0.14362667723020042,0.0
0.0746772676321587,0.002998173594257068,0.14248861580951402,0.0
0.0679805955863709,0.01172903319943347,0.14356284064803607,0.0
0.07349602264118464,0.007206560040302281,0.14346118491425333,0.0
0.07059011704803908,0.008554906672824224,0.1437095574986407,0.0
0.07498357593817423,0.0027251246839910368,0.14259107620609715,0.0
0.06832445482307134,0.01081332693258845,0.14333860794766043,0.0
0.07073710211957718,0.010005981922862759,0.14336489359913987,0.0
0.06980691192232512,0.00960204119706645,0.14348854344946663,0.0
0.07264120252623588,0.004984349606555654,0.14258517534556095,0.0
0.06894109474910436,0.009510577858755333,0.1429480782685373,0.0
0.07120192899726975,0.009523184242628126,0.14359851403218674,0.0
0.07185424230745342,0.008025706771100375,0.1437937788717483,0.0
0.07350997012972475,0.004794449185663365,0.14302988565324373,0.0
0.07153291362916393,0.0067240305810011124,0.1427509358824415,0.0
0.06939116947545641,0.010860533816878059,0.14371653124291076,0.0
0.07145110624445751,0.008244038610939815,0.14339332501808702,0.0
0.07160345573466488,0.006674141487376867,0.14315219439890317,0.0
0.07196448111110701,0.005959600920629611,0.14238454608733012,0.0
0.06761957020992877,0.012529672685822568,0.14358161611337852,0.0
0.07205084825168231,0.008252889901744116,0.14312134899155485,0.0
0.07080576667854388,0.007622302487170993,0.14352475327548422,0.0
0.07299659526307525,0.0045927470436986735,0.14229254630715207,0.0
0.06735617725326744,0.012696774327370444,0.14363070054420238,0.0
0.07320714869584426,0.00740075199612999,0.1434901527750674,0.0
0.07014594318222322,0.008785576675602993,0.1436446480327425,0.0
0.07461718614306284,0.00326183477185187,0.14240117578520486,0.0
0.06769976826903441,0.011758001060247549,0.1434681586585234,0.0
0.07168123980536935,0.008689821802356458,0.14348639768199892,0.0
0.06996033429626634,0.009207756424874832,0.14383991287230405,0.0
0.07431195072078117,0.00374516889395343,0.14251597434472732,0.0
0.06845883351073664,0.010881186828754762,0.14336435715727294,0.0
0.07238531975571152,0.008668632348612827,0.1436097793113922,0.0
0.07086960326070825,0.00862437589459132,0.1439045541172688,0.0
0.07277531299296772,0.004772455069119343,0.14322863736494032,0.0
0.06907976497170508,0.009295464670117458,0.14336087028513791,0.0
0.070705183828495,0.010165036936406724,0.14381094501148997,0.0
0.0716801669216355,0.007996738910286296,0.1437613241387992,0.0
0.07315323628821806,0.00484138784901951,0.14334370414539624,0.0
0.0718233969001051,0.006607086254010946,0.1429673901757467,0.0
0.06942174666187127,0.011123658552605933,0.14394505547822184,0.0
0.07179764769049259,0.008100540411536742,0.14363660140473858,0.0
0.07103187692545378,0.0072416969825860236,0.1435676686248384,0.0
0.07248778015229465,0.005588383148715871,0.14255245239167838,0.0
0.06767831059435732,0.012508483232078937,0.1439037494544684,0.0
0.07196448111110701,0.008236528424802832,0.1434947125309363,0.0
0.07038358692927205,0.008224994924663893,0.1436977557775683,0.0
0.0737873105749262,0.003841191988133429,0.14265223057892687,0.0
0.06760481805858827,0.012419433882168993,0.14392815755941363,0.0
0.07343513648928839,0.007150770086141835,0.14375730082479724,0.0
0.07021594884585725,0.008616329266587407,0.144013988258122,0.0
0.07425911119688883,0.0032009486199556137,0.14275469097551,0.0
0.06764344187300704,0.011878164038439278,0.14377661273200662,0.0
0.07094255935461037,0.009357960147614496,0.14354889315949595,0.0
0.06949899429070881,0.009504945219152596,0.14405100274694,0.0
0.07430202654624302,0.0034034554247206954,0.14292581593105982,0.0
0.06896255242378145,0.010097445261173876,0.14352314394988344,0.0
0.07200230026272539,0.009007127166643997,0.14391018675687153,0.0
0.07089186559818574,0.008682311616219475,0.1438653938609831,0.0
0.07237861423237493,0.0054191357397002865,0.14320476570186205,0.0
0.0690057359940691,0.009455860788328743,0.14333968083139428,0.0
0.06911838878612385,0.011377663776596042,0.14398475217637446,0.0
0.07071939953796857,0.008955896968352433,0.143825428941897,0.0
0.07283056650526123,0.005169422050645595,0.14359046740418283,0.0
0.0719135191337489,0.006267786773179384,0.14318625845745306,0.0
0.06925276747378915,0.011167646785693977,0.14417894413220217,0.0
0.07194221877362951,0.00795623754933328,0.14389677571019835,0.0
0.07149670380314634,0.006696403824854353,0.14383025691869936,0.0
0.07279328379550978,0.004968524571481296,0.14296417152454513,0.0
0.06764773340794246,0.012502582371542736,0.14411323000350357,0.0
0.07201115155352969,0.008059502608716799,0.14366798325395383,0.0
0.07005903959978099,0.00854659182388685,0.14391742872207505,0.0
0.07319400587010454,0.004454613262964876,0.1425242891936647,0.0
0.06742323248663336,0.012334139625327542,0.14388443754725902,0.0
0.07255805403686214,0.007999152898687469,0.14333082954058998,0.0
0.06992010115624679,0.009221703913414944,0.14400620985105156,0.0
0.07469228800443267,0.0032071177014252783,0.14279251012712837,0.0
0.06801519608678772,0.011446328335562745,0.14396329450169737,0.0
0.07238424687197767,0.008174837610106183,0.14412959148044485,0.0
0.07054264194281601,0.008710206593299697,0.14407111931694977,0.0
0.07470087107430351,0.002845824104049695,0.1431489757477016,0.0
0.06896469819124916,0.009844781141851085,0.14361165685792646,0.0
0.07042757516236009,0.010372908159841081,0.14374388977812405,0.0
0.07043454890663015,0.009132386342571538,0.14386137054698114,0.0
0.07368377729460922,0.004433155588287782,0.14329247394710468,0.0
0.07058770305963791,0.007975281235609201,0.1432597509932221,0.0
0.06892553793496345,0.01155656713921632,0.1439962856765134,0.0
0.070627667978724,0.009123266830833771,0.14374254867345673,0.0
0.07159111757172555,0.0064059205539131825,0.14344482343731205,0.0
0.07185129187718532,0.0062296994006275416,0.14300628221109893,0.0
0.06911999811172463,0.011512310685194812,0.14414005209684994,0.0
0.07256046802526331,0.007501066625245407,0.14394720124568955,0.0
0.07130760804505444,0.006965429421118429,0.1436800531959597,0.0
0.07367707177127263,0.00426927259794147,0.14264847548585838,0.0
0.06802029228452353,0.0122029795888638,0.14399011659504374,0.0
0.07286302123821034,0.007435084275613341,0.14369802399850176,0.0
0.07041067724355188,0.008167059203035737,0.14384366796537254,0.0
0.07455281311903156,0.0029445294075643312,0.1426098516714396,0.0
0.06763029904726732,0.012031586412380507,0.14381550476735885,0.0
0.07316047825342158,0.007336647193032168,0.14355854911310065,0.0
0.07014057876355395,0.008837343315761484,0.14382784293029818,0.0
0.0746831684926949,0.0029501620471670685,0.14300976908323396,0.0
0.06763432236126928,0.011537791673873862,0.14371223970797534,0.0
0.070934244505673,0.0095765602083874,0.14362587256740003,0.0
0.07017652036863808,0.009138823644974666,0.1439045541172688,0.0
0.0747408359933896,0.0030896369325681843,0.14320422925999512,0.0
0.0694525920692196,0.00935688726388064,0.14358215255524545,0.0
0.07145030158165712,0.009059430248669415,0.1439616851760966,0.0
0.07107345117014065,0.008442253880769477,0.1439155511755408,0.0
0.07222358253283293,0.005624056532866541,0.14318786778305384,0.0
0.0696076237687616,0.008651734429804615,0.1432517043652182,0.0
0.0699525558891959,0.01058614380194471,0.1441942327254096,0.0
0.07231665519674482,0.00756678075394401,0.14402123022332552,0.0
0.07223887112604035,0.005706668580373356,0.1438616387679146,0.0
0.0721986379860208,0.005666971882220731,0.14329542437737278,0.0
0.06827268818291285,0.012009055853969556,0.14412422706177558,0.0
0.07226006057978399,0.007867724641290265,0.1436387471722063,0.0
0.07101363790197825,0.007430524519744458,0.1439268164547463,0.0
0.07355959100241553,0.0041772728177634265,0.1431438795499658,0.0
0.06770271869930251,0.012400121974959608,0.14433102540147608,0.0
0.07333428541830604,0.00704991901515949,0.14401130604878737,0.0
0.07060379631564573,0.007946313374795124,0.1442489497958362,0.0
0.07405955482239183,0.0034415427972725385,0.14290409003544927,0.0
0.06758845658164699,0.011953534120742574,0.14406441379361318,0.0
0.07239282994184851,0.007862360222620992,0.14385251925617684,0.0
0.06967146035092596,0.009232969192620418,0.14394371437355452,0.0
0.07443265014083983,0.0031993392943548316,0.14267905267227324,0.0
0.06840277533564273,0.010689140640394765,0.1435212664033492,0.0
0.07286784921501269,0.007946849816662051,0.1436880998239636,0.0
0.0708714808072425,0.008425355961961265,0.14376588389466807,0.0
0.07328251877814755,0.004227966574188062,0.14276810202218318,0.0
0.06869647725778547,0.00998935222498801,0.1431623867943748,0.0
0.0703817093827378,0.010195882343755047,0.14376829788306925,0.0
0.07071832665423472,0.008615524603787016,0.143544869845494,0.0
0.07326427975467202,0.004561096973549958,0.14303632295564686,0.0
0.07125798717236366,0.007008076549539155,0.1428633204535628,0.0
0.07025993707894529,0.010371835276107227,0.14387907312858975,0.0
0.07241777448866063,0.007381171867987139,0.1434909574378678,0.0
0.07138244168549081,0.006662071545371001,0.14287565861650212,0.0
0.07179121038808946,0.0063337691228114515,0.14236577062198766,0.0
0.06806133008734347,0.012366862579210111,0.1436851493936955,0.0
0.07257736594407152,0.007763923140039818,0.14331259051711445,0.0
0.07098279249462992,0.007462174589893174,0.1436867587192963,0.0
0.07312346376460359,0.004537761752338618,0.14248271494897782,0.0
0.06754446834855894,0.012542010848761897,0.14382516072096355,0.0
0.07321841397504973,0.007140577690670215,0.14339600722742166,0.0
0.07006520868125066,0.008646906453002269,0.14367200656795578,0.0
0.07397426056555038,0.0036381487415014196,0.14239393382000134,0.0
0.06764397831487397,0.011849732619492128,0.14358161611337852,0.0
0.07256475956019873,0.00815713502849758,0.1432213953997368,0.0
0.07014755250782401,0.0090218793179845,0.14361836238126305,0.0
0.07470033463243658,0.0030821267464312013,0.1426468661602576,0.0
0.06844569068499692,0.010638446883970127,0.14353253168255467,0.0
0.07231102255714209,0.008278907332290093,0.14373718425478746,0.0
0.07078779587600181,0.008504749358266516,0.1437436215571906,0.0
0.07389298962271089,0.003666043718581643,0.14305509842098932,0.0
0.0692761026950005,0.00927588454197461,0.14326323786535713,0.0
0.06959823603609037,0.011118830575803587,0.1436164848347288,0.0
0.07058099753630132,0.009142578738043158,0.14350919646134333,0.0
0.07213614250852377,0.0059982247350483815,0.1428389123486176,0.0
0.07045198326730528,0.007913322199979091,0.1427420845916372,0.0
0.06830031493905961,0.0120412423659852,0.14397724199023748,0.0
0.07093746315687456,0.008755535931055061,0.1436653010446192,0.0
0.07116115941538327,0.006990642188864016,0.14349498075186976,0.0
0.07244352369827314,0.005360663576205203,0.14264820726492491,0.0
0.06812972642537671,0.012258501322090783,0.14382784293029818,0.0
0.07310602940392845,0.0072079011449696,0.14369909688223562,0.0
0.0705944085829745,0.007670582255194456,0.14372323676624735,0.0
0.07308457172925135,0.0043199663543661065,0.1425950995200991,0.0
0.06745971053358442,0.01243445425444296,0.14401962089772474,0.0
0.07246980934975258,0.008038849596840095,0.14379780218575025,0.0
0.07013306857741697,0.008774847838264446,0.14401613402558971,0.0
0.07415450503283798,0.0033967499013841033,0.14291911040772323,0.0
0.067281880054698,0.01229390648530799,0.14397321867623553,0.0
0.07263449700289928,0.008286149297493613,0.14379833862761718,0.0
0.07004401922750703,0.009222508576215335,0.1442333929816953,0.0
0.07331229130176202,0.004373610541058843,0.14301298773443552,0.0
0.06841725926604977,0.010660709221447615,0.14377258941800466,0.0
0.07234186796449041,0.00845781069491037,0.14395632075742731,0.0
0.0708685303769744,0.008600772452446514,0.14401908445585782,0.0
0.0727023568990656,0.005026728514042915,0.1431956461901243,0.0
0.06937105290544664,0.009307802833056787,0.1434059314019598,0.0
0.07032323721924272,0.010671438058786162,0.14395766186209463,0.0
0.07168848177057287,0.00824591615747406,0.14400647807198502,0.0
0.07254893452512437,0.005635053591138552,0.14361192507885992,0.0
0.07147444146566885,0.0068750389665411665,0.14327423492362915,0.0
0.06954110497726261,0.010944218748118729,0.14415104915512195,0.0
0.0727613655044276,0.0073004373670145705,0.143891947733396,0.0
0.07107962025161031,0.007374466344650547,0.1436143390672611,0.0
0.07191083692441426,0.0063077516922654744,0.14267958911414017,0.0
0.06815386630938844,0.012184204123521343,0.14420871665581664,0.0
0.07256449133926526,0.007639468626912668,0.14398180174610636,0.0
0.0700300717389669,0.008324504890978919,0.14401720690932357,0.0
0.07360143346803587,0.0044315462626869995,0.1427909008015276,0.0
0.06761071891912447,0.0125087514530124,0.14416848351579709,0.0
0.07197655105311287,0.008494288741861433,0.1436969511147679,0.0
0.06991366385384366,0.009248526006761312,0.14402525353732748,0.0
0.07502273619445993,0.002959818000771761,0.14298697030388954,0.0
0.06791729544607347,0.011857511026562574,0.14391018675687153,0.0
0.07210529710117544,0.009066403992939471,0.14357383770630808,0.0
0.0703610563708611,0.009108246458559805,0.1441188626431063,0.0
0.07474754151672619,0.003250301271712932,0.143264310749091,0.0
0.06893868076070317,0.010374517485441864,0.1438653938609831,0.0
0.07143689053498394,0.009446473055657514,0.14442704849565607,0.0
0.07062954552525824,0.009214461948211424,0.1443012528778616,0.0
0.07352096718799676,0.004892618047311073,0.14342497508823573,0.0
0.07011322022834066,0.008986742375700756,0.1436105839741926,0.0
0.0693506681145034,0.011603237581639,0.14432083300600446,0.0
0.07065904982793925,0.009246648460227066,0.14424117138876574,0.0
0.07202992701887215,0.006187320493140279,0.1442932062498577,0.0
0.0714578117677941,0.0067902811515666425,0.14378895089494595,0.0
0.06927637091593396,0.011318118729367103,0.1447569602438164,0.0
0.0727975753304452,0.007441521578016469,0.14456840092759143,0.0
0.0711861039621954,0.007387340949456806,0.1445155614036991,0.0
0.07265273602637481,0.0054317421235730795,0.14364786668394405,0.0
0.06814501501858414,0.012302221334245364,0.1446166806956149,0.0
0.07279140624897554,0.007684529743734568,0.14436669878562675,0.0
0.07054907924521914,0.008199245715051378,0.14445896678673825,0.0
0.07336459438378744,0.004304409540225212,0.14318652667838652,0.0
0.06722394433306984,0.01287835989932536,0.14440049462324317,0.0
0.07275385531829062,0.007906616676642499,0.14410679270110044,0.0
0.0698860370976969,0.009127290144835726,0.14437099032056216,0.0
0.07394261049540167,0.004065692909442533,0.1430752149909991,0.0
0.06795645570235917,0.011788041804795481,0.14412395884084211,0.0
0.07230083016167047,0.008825541594689082,0.1440126471534547,0.0
0.07035917882432685,0.009364665670951088,0.14427738121478334,0.0
0.07413760711402977,0.00415206005001784,0.14342926662317115,0.0
0.0691527210656072,0.010272861751659125,0.1441513173760554,0.0
0.07187811397053169,0.009198905134070531,0.14454265171797892,0.0
0.07139075653442818,0.008400143194215679,0.14449946814769127,0.0
0.07389433072737821,0.004201412701775158,0.1438839011053921,0.0
0.0708626295164382,0.007880062804229595,0.1437967293020164,0.0
0.06908298362290664,0.011754514188112521,0.1442924015870573,0.0
0.07087764988871216,0.009177983901260364,0.1439823381879733,0.0
0.07139182941816204,0.0070083447704726185,0.14395310210622575,0.0
0.07105843079786668,0.007303119576349207,0.14356096310150182,0.0
0.06915218462374027,0.011659027535799449,0.14455418521811786,0.0
0.07288447891288743,0.007643760161848087,0.14425887397037435,0.0
0.07133443013840081,0.0072819301226055766,0.14421917727222172,0.0
0.07279033336524168,0.005242646365481182,0.14318759956212038,0.0
0.06727463808949448,0.013045729761806698,0.14443536334459345,0.0
0.07242340712826337,0.008388341473143277,0.14393674062928447,0.0
0.07052064782627199,0.008489997206926014,0.1443972759720416,0.0
0.07458151275891217,0.0033267442377500817,0.1432310513533415,0.0
0.06760374517485442,0.012245626717284526,0.14447988801954842,0.0
0.07238424687197767,0.008142919319024005,0.14430447152906317,0.0
0.06991554140037791,0.009262473495301423,0.1446048789745425,0.0
0.07438329748908251,0.0033133331910768977,0.14376776144120232,0.0
0.06755868405803252,0.011649908024061684,0.14438359670443496,0.0
0.07118154420632651,0.009408653904039135,0.14417250682979904,0.0
0.07011617065860876,0.009336234252003937,0.1443618708088244,0.0
0.07368350907367575,0.004112899793732142,0.14354647917109478,0.0
0.06869245394378351,0.01036432508997024,0.14381711409295964,0.0
0.0702679837069492,0.010771216246034651,0.14385895655857997,0.0
0.07089615713312115,0.008972258445293717,0.14414273430618457,0.0
0.07360921187510631,0.00442001276254806,0.1438852422100594,0.0
0.07098306071556339,0.0075386175559303235,0.14361889882312998,0.0
0.06967977519986333,0.010885210142756717,0.1443988852976424,0.0
0.07210797931051008,0.008036167387505459,0.1441912822951415,0.0
0.0727259603412104,0.005772650930005422,0.1440501980841396,0.0
0.07275787863229258,0.0055492228924301735,0.14337776820394613,0.0
0.06891534553949183,0.011532695476138052,0.14438896112310423,0.0
0.0729925719490733,0.007306606448484235,0.14413039614324524,0.0
0.07130465761478634,0.007279516134204403,0.1441861860974057,0.0
0.07386026666882832,0.003933191768311473,0.14320530214372898,0.0
0.06773758742065279,0.01249051242953687,0.14436938099496138,0.0
0.07312614597393823,0.007619083835969429,0.14397134112970128,0.0
0.07054988390801953,0.008410067368753835,0.144128518596711,0.0
0.07472259696991407,0.0031470362123294134,0.1429333261171968,0.0
0.06760937781445715,0.012334407846261006,0.14417840769033524,0.0
0.07310683406672884,0.007670582255194456,0.1437310151733178,0.0
0.07038090471993741,0.008692504011691094,0.14401318359532161,0.0
0.07452545458381826,0.0030488673506817044,0.1429657808501459,0.0
0.06821126558914967,0.011155308622754647,0.14377929494134126,0.0
0.07240329055825359,0.00871262058170087,0.1438970439311318,0.0
0.07042113785995696,0.009098858725888576,0.14401076960692044,0.0
0.07367975398060726,0.004076153525847617,0.1431098154914159,0.0
0.06923855176431558,0.009572268673451982,0.1435242168336173,0.0
0.06986323831835249,0.010654003698111023,0.14411323000350357,0.0
0.07056517250122696,0.009251744657962876,0.14402766752572865,0.0
0.07271898659694034,0.005756021232130674,0.14340727250662713,0.0
0.07075748691052042,0.007810057140595572,0.14329140106337082,0.0
0.06968996759533495,0.010949851387721466,0.14421944549315519,0.0
0.07254437476925549,0.007770896884309874,0.14395497965276,0.0
0.07247275978002068,0.006007344246786147,0.14371974989411232,0.0
0.0728093770515176,0.005359322471537885,0.14332010070325144,0.0
0.06877292022382261,0.011790455793196654,0.14433209828520993,0.0
0.07309208191538834,0.007317335285822783,0.14403222728159754,0.0
0.07041040902261841,0.008240551738804787,0.14408989478229223,0.0
0.07243681817493655,0.005479485449729616,0.14282791529034558,0.0
0.06742081849823219,0.012519480290350948,0.14428971937772267,0.0
0.07249099880349621,0.007921368827983001,0.14390482233820226,0.0
0.0702229225901273,0.0085691223822978,0.14418108989966988,0.0
0.0736676840386014,0.0038500432789377306,0.14294727360573692,0.0
0.06739211885835157,0.012384833381752178,0.1440923087706934,0.0
0.0730523852172357,0.007978231665877302,0.14380209372068567,0.0
0.07010812403060485,0.009186298750197738,0.14411913086403977,0.0
0.07382834837774614,0.004053622967436667,0.14306716836299518,0.0
0.06834001163721223,0.010909081805834985,0.14407916594495368,0.0
0.07227642205672527,0.008426965287562047,0.14411618043377167,0.0
0.07086611638857322,0.00858950717324104,0.14428381851718647,0.0
0.07381305978453871,0.0041421358754796835,0.1435175113102807,0.0
0.06952608460498864,0.009266496809303379,0.14385466502364455,0.0
0.07106084478626785,0.009868384583995889,0.1443050079709301,0.0
0.07169438263110907,0.008285881076560149,0.1440059416301181,0.0
0.07345954459423358,0.004712910021890405,0.14381684587202617,0.0
0.0714275028023127,0.006762117953552955,0.1436977557775683,0.0
0.06846795302247441,0.012035341505448998,0.1443854742509692,0.0
0.0709304894126045,0.008889646397786903,0.14411483932910435,0.0
0.07084519515576304,0.0072618135525958005,0.143973486897169,0.0
0.07187543176119705,0.005891741024463299,0.1432310513533415,0.0
0.06852481586036871,0.011706770861955984,0.14447076850781065,0.0
0.07340777795407509,0.00693056069976815,0.14425458243543893,0.0
0.07110697878682361,0.007426501205742503,0.14433397583174418,0.0
0.07405419040372256,0.003612399531888906,0.14319591441105775,0.0
0.06755412430216363,0.012211562658734638,0.14438708357656999,0.0
0.0720318045654064,0.00815633036569719,0.14392869400128055,0.0
0.06992117403998065,0.008932293526207629,0.14439968996044278,0.0
0.07387850569230385,0.0035965744968145487,0.14286358867449625,0.0
0.06736449210220481,0.012178303262985142,0.1442924015870573,0.0
0.07240704565132208,0.008475513276518973,0.14408667613109066,0.0
0.0701336050192839,0.008941413037945394,0.14435570172735473,0.0
0.07334072272070917,0.00419792582964013,0.14310793794488166,0.0
0.06835771421882084,0.010697187268398675,0.143925475350079,0.0
0.0725073602804375,0.008366615577532719,0.14423687985383032,0.0
0.07084144006269455,0.00850287181173227,0.1442991071103939,0.0
0.07400966572876759,0.0036569242068438777,0.14346601289105568,0.0
0.0699702584708045,0.00849267941626065,0.1437744669645389,0.0
0.06999493479668316,0.010404558229989796,0.14444877439126663,0.0
0.07111019743802517,0.008312434948973053,0.14421917727222172,0.0
0.07275063666708906,0.005224943783872579,0.14372189566158003,0.0
0.0717783357832832,0.0065107949388974835,0.14339976232049015,0.0
0.06939385168479105,0.011152358192486547,0.1442999117731943,0.0
0.07190010808707571,0.007989228724149313,0.1443846695881688,0.0
0.07123357906741846,0.006873966082807312,0.1444267802747226,0.0
0.07181293628370002,0.0057876713022793885,0.14338769237848428,0.0
0.06798005914450397,0.012080402622270897,0.1444149785536502,0.0
0.07338310162819643,0.006934584013770105,0.14432002834320407,0.0
0.07111824406602908,0.0076695093714606016,0.14435033730868546,0.0
0.07431946090691816,0.003550976938125722,0.14336489359913987,0.0
0.06743664353330654,0.012220950391405867,0.1445686691485249,0.0
0.07255885869966253,0.007838488559542722,0.14410250116616502,0.0
0.07033772114964976,0.008684457383687184,0.14450161391515898,0.0
0.07480708656395513,0.002873719081129918,0.14347513240279344,0.0
0.06767375083848844,0.011813254572541067,0.14452253514796914,0.0
0.07251165181537292,0.008326382437513165,0.1443227105525387,0.0
0.07041550522035422,0.008745611756516903,0.1446129256025464,0.0
0.07408208538080278,0.0033321086564193554,0.14361755771846266,0.0
0.06874073371180697,0.010029048923140636,0.14413683344564837,0.0
0.07123170152088422,0.0092316280879531,0.1443884246812373,0.0
0.07028112653268892,0.009134532110039248,0.1444077365884467,0.0
0.07319963850970727,0.004532397333669344,0.14377366230173852,0.0
0.06977848050337797,0.008693308674491486,0.14386995361685198,0.0
0.06937373511478127,0.011405022311809338,0.1442969613429262,0.0
0.07074944028251651,0.009015173794647908,0.14411644865470513,0.0
0.07277531299296772,0.00557738609044386,0.14386190698884807,0.0
0.07193444036655906,0.006490678368887707,0.14345152896064864,0.0
0.06850094419729044,0.012050898319589892,0.14437769584389876,0.0
0.07145915287246142,0.008693308674491486,0.1439083092103373,0.0
0.07143957274431857,0.006702572906324018,0.1441706292832648,0.0
0.07350085061798699,0.0042395000743270005,0.14331124941244713,0.0
0.06849584799955463,0.011789919351329727,0.14427228501704753,0.0
0.07350621503665626,0.006830514291586195,0.14416875173673055,0.0
0.07006976843711954,0.008469344195049308,0.14449812704302395,0.0
0.07253203660631616,0.004780501697123254,0.14305053866512044,0.0
0.06693963014359834,0.012526722255554467,0.14446781807754255,0.0
0.0728552428311399,0.007935584537456577,0.1442127399698186,0.0
0.07005957604164792,0.009020538213317181,0.14455740386931942,0.0
0.07392410325099268,0.0037540201847577315,0.1431704334223787,0.0
0.06806159830827693,0.011358888311253585,0.14431198171520015,0.0
0.07230914501060784,0.00842723350849551,0.14417250682979904,0.0
0.07019100429904512,0.009135336772839639,0.14446942740314334,0.0
0.07456220085170279,0.003359735412566115,0.14368193074249394,0.0
0.06904999244809061,0.009891183363340302,0.14427738121478334,0.0
0.07176304719007577,0.008903057444460087,0.14445655279833708,0.0
0.07122285023007992,0.008203269029053334,0.14447532826367954,0.0
0.07342682164035101,0.0045095985543249315,0.1438763909192551,0.0
0.07017383815930345,0.008274884018288138,0.14391099141967192,0.0
0.07030204776549909,0.010214926030030968,0.14472316440619998,0.0
0.07202322149553556,0.007619352056902892,0.14450107747329205,0.0
0.0726564911194433,0.005241573481747327,0.144235538749163,0.0
0.07218174006721259,0.005763799639201121,0.14358885807858204,0.0
0.06808976150629062,0.01207476998266816,0.14459415013720395,0.0
0.07133067504533232,0.008502335369865343,0.1444002264023097,0.0
0.07061532981578467,0.007703036988143562,0.1443846695881688,0.0
0.07260767490955292,0.005062401898193586,0.14331419984271523,0.0
0.06740687100969207,0.01254147440689497,0.14471028980139372,0.0
0.07216350104373706,0.007969648596006464,0.14455874497398674,0.0
0.06990829943517439,0.008477927264920146,0.14454399282264624,0.0
0.07304380214736486,0.004250765353532476,0.14313100494515954,0.0
0.06677628359511896,0.012397707986558435,0.14454560214824702,0.0
0.07219810154415388,0.0083143124955073,0.1440746061890848,0.0
0.07026691082321534,0.008802474594411205,0.144457089240204,0.0
0.07448119812979676,0.0029866400941181296,0.14336569826194026,0.0
0.06792346452754314,0.011184812925435652,0.1443988852976424,0.0
0.07205111647261578,0.00840684871755227,0.14445762568207093,0.0
0.07011697532140915,0.009025097969186064,0.14444662862379892,0.0
0.07429532102290642,0.003384411738444774,0.1436025373461887,0.0
0.06903148520368162,0.00971335288445388,0.1441816263415368,0.0
0.07059333569924064,0.00976216909434427,0.14447827869394764,0.0
0.07034174446365171,0.009109051121360196,0.1444039814953782,0.0
0.0724357452912027,0.005344838541130846,0.1438860468728598,0.0
0.07020951154345412,0.00805816150404948,0.1439823381879733,0.0
0.07022533657852847,0.01029431942633622,0.14457886154399652,0.0
0.07208276654276449,0.0077703604424429465,0.14455364877625093,0.0
0.07126388803289986,0.006785453174764296,0.14445655279833708,0.0
0.07080093870174153,0.00710812295772111,0.14380826280215533,0.0
0.06833008746267408,0.012083621273472461,0.14479477939543478,0.0
0.07273990782975051,0.007321090378891275,0.14435167841335278,0.0
0.07122821464874919,0.006986082432995133,0.14468373592898082,0.0
0.07368270441087536,0.003760725708094324,0.1436607412887503,0.0
0.06744522660317738,0.01250794679021201,0.14482160148878115,0.0
0.07167292495643197,0.008609087301383888,0.14435114197148585,0.0
0.06977767584057758,0.00893604861927612,0.14457617933466188,0.0
0.07326347509187163,0.004487336216847445,0.14317284741077987,0.0
0.06722233500746906,0.01232957986945866,0.14464135702149356,0.0
0.07187328599372934,0.008466125543847744,0.14423875740036457,0.0
0.06975299951469892,0.009110660446960978,0.14471028980139372,0.0
0.07487467823918798,0.00299978291985785,0.1434931032053355,0.0
0.06825525382223771,0.011010201097750794,0.1444882028684858,0.0
0.0711431886128412,0.009416968752976509,0.14461185271881255,0.0
0.07016337754289836,0.009124876156434553,0.14471538599912953,0.0
0.07386938618056609,0.0036451224857714753,0.14379699752294986,0.0
0.06969452735120384,0.009007663608510925,0.14421810438848787,0.0
0.07083392987655757,0.00973373767539712,0.14487202702427232,0.0
0.07077009329439321,0.008739710895980702,0.14467461641724305,0.0
0.07282225165632386,0.004954040641074257,0.14410598803830005,0.0
0.07077518949212902,0.0074018248798638445,0.1438839011053921,0.0
0.06869111283911619,0.011685849629145817,0.14453299576437423,0.0
0.07096535813395478,0.008825273373755618,0.144331561843343,0.0
0.07195133828536728,0.00597408485103665,0.14439083866963848,0.0
0.07177887222515013,0.005970866199835086,0.14383106158149975,0.0
0.0681659362513943,0.011808158374805257,0.1448757821173408,0.0
0.07252720862951381,0.007325650134760157,0.14478405055809623,0.0
0.07098037850622875,0.007419795682405911,0.14447425537994568,0.0
0.07348207515264453,0.004461318786301468,0.14325814166762132,0.0
0.06780598375868603,0.012202443146996873,0.14462714131201998,0.0
0.0736100165379067,0.006839365582390497,0.14434845976215122,0.0
0.07011268378647373,0.00860264999898076,0.1446107798350787,0.0
0.0728485373078033,0.004554927892080294,0.1432361475510773,0.0
0.06713248099475873,0.012186349890989052,0.1443803780532334,0.0
0.07233060268528493,0.008041263585241269,0.1442805998659849,0.0
0.07019583227584747,0.008676947197550201,0.14476044711595143,0.0
0.0746027022126558,0.0027253929049245004,0.14379646108108293,0.0
0.06809351659935911,0.010723472919878116,0.1442999117731943,0.0
0.07174722215500141,0.008687944255822212,0.14431224993613362,0.0
0.07062552221125629,0.008532376114413275,0.14438359670443496,0.0
0.0736196724915114,0.003944457047516948,0.14382435605816316,0.0
0.06887162552733725,0.00956851358038349,0.14412959148044485,0.0
0.07079718360867304,0.009672046860700471,0.14460273320707479,0.0
0.07138163702269042,0.008093298446333223,0.14452468091543685,0.0
0.07292149340170542,0.004585505078495154,0.14407058287508284,0.0
0.07052037960533852,0.007473439869098648,0.1436357967419382,0.0
0.06976506945670478,0.010576219627406553,0.1444675498566091,0.0
0.07247141867535337,0.007284075890073286,0.14461829002121568,0.0
0.07199881339059036,0.005871088012586596,0.1444002264023097,0.0
0.072983720658269,0.004712910021890405,0.14361782593939612,0.0
0.06778238031654123,0.012391807126022234,0.14463384683535657,0.0
0.07165656347949069,0.008407116938485735,0.14414809872485385,0.0
0.07010249139100211,0.008227140692131603,0.14439003400683809,0.0
0.07290271793636297,0.0046404903698552095,0.14329703370297356,0.0
0.0677456340486567,0.011841685991488217,0.14474354919714322,0.0
0.07351882142052905,0.006548077648648935,0.14451341563623138,0.0
0.07041765098782193,0.008111805690742217,0.14470197495245635,0.0
0.07434225968626257,0.00289571319767394,0.14349229854253512,0.0
0.06729341355483694,0.01197660112102045,0.14459978277680668,0.0
0.07175956031794074,0.008717448558503217,0.14433638982014535,0.0
0.06987906335342685,0.008940876596078466,0.1446727388707088,0.0
0.07360679788670514,0.0036271516832294087,0.14369426890543327,0.0
0.0681393823789814,0.010668219407584598,0.14430929950586552,0.0
0.07179711124862566,0.008786649559336848,0.14438279204163457,0.0
0.07078082213173176,0.008386195705675567,0.1446410888005601,0.0
0.07414163042803172,0.0035295192634486276,0.1439608805132962,0.0
0.06988737820236422,0.008424819520094337,0.1442068391092824,0.0
0.06979591486405311,0.010115416063715943,0.14468266304524696,0.0
0.07076311955012315,0.008488924323192159,0.14438708357656999,0.0
0.07254249722272124,0.004973084327350178,0.1442489497958362,0.0
0.070561149187225,0.0072685190759323925,0.14377714917387355,0.0
0.0685677312097229,0.011784554932660453,0.14447532826367954,0.0
0.0719837930183164,0.00789722894397127,0.14426826170304557,0.0
0.07097957384342836,0.007055551654762227,0.14461346204441333,0.0
0.07179174682995638,0.005677968940492742,0.14373181983611819,0.0
0.0676407596636724,0.012282641206102514,0.14487229524520578,0.0
0.0724622991636156,0.007718862023217919,0.14442570739098876,0.0
0.0706453705603326,0.007874698385560321,0.14459200436973624,0.0
0.07394261049540167,0.0037821833827714185,0.14344187300704395,0.0
0.06765685291968022,0.011953534120742574,0.14484010873319014,0.0
0.07321331777731392,0.006885231362012786,0.14458208019519808,0.0
0.07017759325237194,0.008169741412370373,0.14483662186105511,0.0
0.07489640413479853,0.0022627117946996443,0.14369882866130215,0.0
0.0677877447352105,0.011314095415365148,0.14465664561470098,0.0
0.07190600894761191,0.008474708613718582,0.14435462884362088,0.0
0.0703640068011292,0.008578778335902492,0.14470573004552484,0.0
0.0744683235249905,0.0027119818582513164,0.1438881926403275,0.0
0.06831748107880128,0.010092349063438064,0.1444586985658048,0.0
0.07167775293323432,0.0085181604049397,0.1447998755931706,0.0
0.0703669572313973,0.008481414137055176,0.144870685919605,0.0
0.07287375007554889,0.004521668496330797,0.14397804665303787,0.0
0.0698321246900707,0.0083172629257754,0.14402498531639402,0.0
0.06953198546552485,0.010505141080038676,0.14460005099774015,0.0
0.0710324133673207,0.008336574832984785,0.14436750344842714,0.0
0.07189903520334186,0.005554855532032911,0.14403008151412983,0.0
0.07093799959874149,0.006625325277486476,0.1435810796715116,0.0
0.06929702392781066,0.010704161012668731,0.1446979516384544,0.0
0.0727163043876057,0.007016123177543065,0.14441524677458367,0.0
0.07139075653442818,0.006538689915977706,0.14461024339321177,0.0
0.072156527299467,0.005357444925003639,0.1435684732876388,0.0
0.0674398621845081,0.012582512209714916,0.14482294259344847,0.0
0.07151682037315611,0.00837332110086931,0.14435945682042323,0.0
0.0700123691573583,0.00811126924887529,0.1447695666276892,0.0
0.07338766138406531,0.003678381881520972,0.14387075827965237,0.0
0.0673084339271109,0.011901231038717156,0.1449047499781549,0.0
0.07255295783912633,0.007211924458971555,0.14480738577930757,0.0
0.07001800179696104,0.008451105171573778,0.14486505328000227,0.0
0.07384310052908664,0.003593087624679521,0.14338474194821618,0.0
0.06746453851038677,0.01159599561643548,0.14458154375333115,0.0
0.07277048501616537,0.007656634766654345,0.1444688909612764,0.0
0.07034710888232099,0.008491338311593332,0.1446794443940454,0.0
0.07384846494775592,0.003523350181978963,0.14372270032438042,0.0
0.06899071562179514,0.009539277498635947,0.14457564289279495,0.0
0.07160157818813064,0.008441449217969086,0.1446912461151178,0.0
0.0710420693209254,0.007898301827705125,0.1448100679886422,0.0
0.07287401829648235,0.004152864712818231,0.14407809306121983,0.0
0.06956578130314127,0.008366615577532719,0.1439579300830281,0.0
0.06984553573674389,0.010306657589275549,0.14462714131201998,0.0
0.07095757972688434,0.008329064646847802,0.14465771849843484,0.0
0.07189152501720487,0.005575776764843078,0.14439352087897311,0.0
0.07158575315305628,0.005842656593639445,0.14376829788306925,0.0
0.06842262368471905,0.011549861615879727,0.14474033054594165,0.0
0.07146693127953187,0.008100808632470206,0.1442784540985172,0.0
0.07062605865312321,0.007249743610589935,0.1444069319256463,0.0
0.0720006909371246,0.0052949494475066005,0.14345608871651752,0.0
0.06813026286724364,0.011529476824936487,0.14496617257191807,0.0
0.07357863468869145,0.006325454273874077,0.14467622574284383,0.0
0.07068238504915059,0.007366419716646637,0.14483849940758936,0.0
0.07428539684836827,0.002718150939720981,0.14372779652211623,0.0
0.06732077209005023,0.012034536842648607,0.14479880270943674,0.0
0.07180408499289571,0.0083231637863116,0.1442924015870573,0.0
0.06975997325896897,0.008741320221581484,0.14475454625541523,0.0
0.0746174543639963,0.0025757256240517643,0.14380584881375416,0.0
0.06816700913512816,0.010614843441825323,0.14474649962741132,0.0
0.07263181479356465,0.007537544672196469,0.14490153132695333,0.0
0.0703218961145754,0.008327723542180483,0.1448883885012136,0.0
0.07370282098088514,0.003237963108773602,0.14393379019901636,0.0
0.06832901457894022,0.009815545060103542,0.14442570739098876,0.0
0.0704954350585264,0.00962537641827779,0.14466656978923914,0.0
0.07090715419139317,0.008203537249986797,0.14449732238022356,0.0
0.07240463166292091,0.004820734837142806,0.1439933352462453,0.0
0.06979350087565193,0.007922978153583784,0.14414166142245072,0.0
0.06972483631668523,0.010462225730684487,0.1448146277445111,0.0
0.0719837930183164,0.007460028822425464,0.14454613859011395,0.0
0.07200820112326159,0.005713642324643412,0.14427362612171485,0.0
0.07236600784850214,0.005169690271579059,0.14377688095294008,0.0
0.06888396369027658,0.010764510722698059,0.14496939122311964,0.0
0.07270879420146872,0.0067642637210206654,0.14472772416206886,0.0
0.07029292825376132,0.007303924239149598,0.14464296634709434,0.0
0.07202027106526745,0.005052745944588893,0.14352314394988344,0.0
0.06753937215082313,0.012235970763679833,0.14480738577930757,0.0
0.07288206492448626,0.007077813992239713,0.14439620308830775,0.0
0.0702797854280216,0.007666558941192501,0.1448942893617498,0.0
0.07430470875557765,0.002540320460834558,0.1439007990242003,0.0
0.06739399640488582,0.01176899811851956,0.14494417845537405,0.0
0.07166702409589577,0.008535058323747912,0.14460890228854445,0.0
0.06948263281376753,0.00908598412108232,0.1448765867801412,0.0
0.07320178427717498,0.003974766012998344,0.14354326051989322,0.0
0.0677279314670481,0.01096111666692694,0.14489241181521556,0.0
0.07238987951158041,0.007684797964668031,0.14480926332584182,0.0
0.07039136533634249,0.008261472971614954,0.1449178928038946,0.0
0.07352525872293218,0.003408015180589578,0.1442865007265211,0.0
0.06903094876181469,0.009005249620109752,0.14446406298447406,0.0
0.0704621756627769,0.009362519903483378,0.14499460399086522,0.0
0.07058287508283556,0.008370907112468138,0.14469017323138395,0.0
0.07268760474772509,0.004592210601831746,0.14416285087619435,0.0
0.07059199459457333,0.007018268945010775,0.1439718775715682,0.0
0.06917551984495161,0.010635496453702027,0.14481435952357763,0.0
0.07191727422681739,0.007413358380002783,0.144571619578793,0.0
0.0720967140313046,0.005265981586692523,0.14425270488890468,0.0
0.07251513868750795,0.004710227812555768,0.14366610570741958,0.0
0.06881824956157798,0.010992766737075655,0.14499567687459908,0.0
0.07332409302283442,0.006626666382153795,0.14467515285910998,0.0
0.07054586059401757,0.007340938727967587,0.1447022431733898,0.0
0.07232228783634756,0.004755288929377667,0.14362667723020042,0.0
0.06712336148302096,0.012370617672278603,0.14496563613005115,0.0
0.07178691885315404,0.008005053759223672,0.14451797539210026,0.0
0.0703366482659159,0.007918686618648365,0.14487846432667545,0.0
0.0749535351936263,0.0021707120145216005,0.14378895089494595,0.0
0.06787733052698738,0.011042119388832972,0.14485351977986333,0.0
0.07327098527800861,0.006670118173374912,0.14479343829076746,0.0
0.07032457832391004,0.008082837829928139,0.14498038828139165,0.0
0.07441467933829776,0.0027610662890751704,0.14376990720867003,0.0
0.0680197558426566,0.010548056429392867,0.14461238916067948,0.0
0.07181615493490158,0.008376271531137411,0.14463840659122545,0.0
0.0704718316163816,0.008281321320691266,0.14476339754621953,0.0
0.07362020893337833,0.003520667972644326,0.1438401810932375,0.0
0.06958831186155222,0.008371711775268529,0.14405422139814156,0.0
0.07117135181085489,0.008729786721442546,0.1447813683487616,0.0
0.07158065695532047,0.007453323299088872,0.14467542108004344,0.0
0.07319346942823761,0.004096270095857393,0.14422561457462485,0.0
0.07067514308394707,0.007028461340482395,0.14398984837411027,0.0
0.06969372268840344,0.010330261031420353,0.14475856956941718,0.0
0.07238451509291113,0.007140309469736751,0.14448096090328227,0.0
0.07179442903929102,0.005925268641146259,0.14436616234375982,0.0
0.0724172380467937,0.004777819487788617,0.14378734156934517,0.0
0.06852991205810452,0.011173815867163641,0.14477063951142305,0.0
0.07318971433516912,0.0068205901170480384,0.14430232576159546,0.0
0.0710147107857121,0.006669045289641057,0.1445037596826267,0.0
0.0742172687312685,0.002785206173086902,0.14355211181069752,0.0
0.06738997309088386,0.012032122854247434,0.14469956096405517,0.0
0.07187623642399744,0.007946313374795124,0.1440797023868206,0.0
0.06979832885245428,0.008516819300272382,0.14457296068346032,0.0
0.07369772478314933,0.00344529789034103,0.14329059640057043,0.0
0.0677515349091929,0.011074305900848616,0.14479370651170093,0.0
0.07340536396567392,0.00656148869532212,0.14465369518443288,0.0
0.07050053125626221,0.007882476792630768,0.1447953158373017,0.0
0.0746957748765677,0.0021004381299541152,0.1436387471722063,0.0
0.06842423301031983,0.009958775038573151,0.14438896112310423,0.0
0.07118556752032847,0.008923442235403327,0.14450831943849557,0.0
0.07054425126841679,0.00824591615747406,0.14462097223055032,0.0
0.07309664167125722,0.0038299267089279545,0.14379270598801444,0.0
0.069386877940521,0.00844466786917065,0.1440126471534547,0.0
0.07086906681884132,0.009130240575103827,0.14466710623110607,0.0
0.07129178300998008,0.007615596963834401,0.14457510645092803,0.0
0.07301671183308503,0.004199803376174376,0.14420120646967965,0.0
0.07110644234495668,0.006425500682056032,0.14389650748926489,0.0
0.06895316469111022,0.010807157851118786,0.14471216734792797,0.0
0.07182366512103856,0.007361055297977363,0.1443988852976424,0.0
0.07135857002241254,0.0057758695812069865,0.14453970128771082,0.0
0.07163886089788209,0.005125702038491015,0.1434657446701222,0.0
0.06814501501858414,0.011348159473915037,0.14465235407976557,0.0
0.07335815708138431,0.006184370062872179,0.144350069087752,0.0
0.07034174446365171,0.007448495322286525,0.1446697884404407,0.0
0.07246954112881912,0.004381120727195827,0.1434711090887915,0.0
0.06731567589231442,0.011981965539689724,0.1446048789745425,0.0
0.07324040809159375,0.006655366022034409,0.14424680402836848,0.0
0.07047209983731506,0.007554442591004681,0.14500399172353645,0.0
0.0749055236465363,0.0018711092318426648,0.14380745813935494,0.0
0.06766624065235145,0.010862411363412304,0.14478619632556394,0.0
0.07208062077529678,0.007877917036761885,0.14448766642661887,0.0
0.06971276637467937,0.008766264768393608,0.14474033054594165,0.0
0.07297084605346274,0.003909588326166669,0.14363311453260355,0.0
0.06798891043530828,0.010303170717140521,0.14451582962463255,0.0
0.07160506506026566,0.008170814296104228,0.1449911171187302,0.0
0.07042516117395892,0.008045286899243224,0.14495437085084567,0.0
0.07286060724980917,0.003787547801440692,0.14419584205101038,0.0
0.06967172857185942,0.007942826502660096,0.14445306592620205,0.0
0.0697693609916402,0.00989547489827572,0.14512308181799433,0.0
0.07059306747830718,0.008175642272906574,0.14484842358212752,0.0
0.07240436344198745,0.004791766976328728,0.1445147567408987,0.0
0.07173112889899359,0.005783647988277433,0.14422320058622368,0.0
0.06876996979355451,0.011160941262357385,0.14502598584008047,0.0
0.0723072674640736,0.006960065002449155,0.14479746160476942,0.0
0.07169518729390946,0.0057289309178508415,0.1448618346288007,0.0
0.07332543412750174,0.0038175885459886248,0.1439866297229087,0.0
0.06839955668444117,0.010835052828199009,0.14519979300496494,0.0
0.07340080420980503,0.005944044106488718,0.1448197239422469,0.0
0.07077840814333058,0.007005930782071445,0.1450235718516793,0.0
0.07383398101734888,0.0032242838411669543,0.1435861758692474,0.0
0.06723789182160995,0.011802793956135984,0.1449313038505678,0.0
0.07193363570375867,0.007835806350208085,0.14446647697287524,0.0
0.06965000267624886,0.008444936090104114,0.1452000612258984,0.0
0.07309047258978756,0.0033785108779085726,0.14415695001565815,0.0
0.06742484181223414,0.010857583386609958,0.14519737901656377,0.0
0.07275358709735716,0.006726712790335749,0.14525048676138957,0.0
0.07026020529987875,0.007986546514814676,0.1452038163189669,0.0
0.07321707287038241,0.003689647160726447,0.14379109666241366,0.0
0.06813750483244715,0.009954751724571194,0.1446432345680278,0.0
0.07127676263770612,0.008769751640528636,0.1449334496180355,0.0
0.07096884500608981,0.00744956820602038,0.1449629539207165,0.0
0.07325140514986576,0.0033334497610866738,0.14430366686626278,0.0
0.06978169915457953,0.007776529523912611,0.14419181873700843,0.0
0.07019422295024669,0.009592653464395222,0.1451469534810726,0.0
0.07161713500227153,0.0070922979226467515,0.1449806565023251,0.0
0.07212380434558444,0.004709691370688841,0.14473147925513735,0.0
0.07098493826209763,0.006044090514670672,0.14416070510872664,0.0
0.0683247230440048,0.011071355470580515,0.14506085456143075,0.0
0.07175151368993683,0.007377416774918648,0.14460300142800825,0.0
0.07106406343746942,0.006431133321658769,0.14496992766498656,0.0
0.07328520098748219,0.0036153499621570063,0.14404697943293804,0.0
0.06800473547038263,0.01121807232118515,0.14517216624881818,0.0
0.07229653862673505,0.007093102585447143,0.14455713564838596,0.0
0.06990722655144053,0.007748634546832388,0.14484359560532517,0.0
0.07297862446053319,0.0038942997329592384,0.14353414100815545,0.0
0.0668918868174418,0.011911959876055703,0.14506380499169885,0.0
0.07133898989426969,0.00788194035076384,0.14473979410407473,0.0
0.0693927788010572,0.008418918659558136,0.14504905284035835,0.0
0.073559859223349,0.0028825703719342196,0.14381040856962304,0.0
0.06773141833918313,0.010627181604764653,0.14473308858073813,0.0
0.07123545661395271,0.00857931477776942,0.14447210961247797,0.0
0.06977445718937601,0.008416504671156963,0.14491091905962455,0.0
0.07424865058048374,0.0023726823774197553,0.1440724604216171,0.0
0.06932277313742317,0.008631886080728303,0.1446764939637773,0.0
0.07124564900942433,0.008448422962239141,0.14514936746947377,0.0
0.07055390722202148,0.008053601748180598,0.1450463706310237,0.0
0.07341904323328056,0.003393799471116003,0.14464645321922937,0.0
0.06991607784224484,0.00744742243855267,0.1445552581018517,0.0
0.069464393790292,0.0102870774611327,0.14510296524798455,0.0
0.0715154792684888,0.007296414053012615,0.144889193164014,0.0
0.07145244734912483,0.0054553455657178835,0.14462875063762076,0.0
0.07134086744080394,0.005814493395625758,0.14398797082757603,0.0
0.06868172510644496,0.011039437179498336,0.14508499444544248,0.0
0.07289333020369174,0.006443203263664635,0.14489965378041908,0.0
0.07111583007762791,0.006417454054052121,0.14511315764345617,0.0
0.07351023835065822,0.003304213679339132,0.14434899620401814,0.0
0.06767536016408922,0.01124569907733191,0.14566622920825828,0.0
0.07275868329509297,0.006297022854926927,0.14533631746009795,0.0
0.07043401246476322,0.007312507309020436,0.1452880376920745,0.0
0.07402227211264038,0.002947211616898968,0.14380826280215533,0.0
0.06761661977966067,0.011032731656161743,0.1451890641676264,0.0
0.07292551671570738,0.00645446854287011,0.14511771739932505,0.0
0.06961996193170093,0.008282930646292049,0.14530842248301773,0.0
0.07290218149449604,0.003416061808593489,0.14402257132799284,0.0
0.06736288277660403,0.010645957070107112,0.14506434143356578,0.0
0.072540619676187,0.007100344550650662,0.14519013705136025,0.0
0.07077813992239712,0.007561148114341273,0.14523305240071444,0.0
0.07469631131843463,0.0020194354080480823,0.14442275696072066,0.0
0.06929434171847602,0.008467466648515063,0.14489107071054824,0.0
0.07013145925181619,0.009510041416888406,0.1450863355501098,0.0
0.07071001180529735,0.007660926301589764,0.1450576359102292,0.0
0.07288984333155671,0.003961086745391696,0.14462124045148378,0.0
0.07044554596490216,0.007011831642607646,0.14450697833382825,0.0
0.06998179197094344,0.00980883953676695,0.14494739710657562,0.0
0.07206399107742203,0.00680396041917329,0.14508070291050706,0.0
0.07194060944802873,0.004891008721710291,0.14487605033827428,0.0
0.07205889487968622,0.004774064394720125,0.14410813380576776,0.0
0.06879384145663278,0.010660172779580687,0.1452164227028397,0.0
0.07218844559054918,0.006905347932022564,0.14486907659400422,0.0
0.07080576667854388,0.0064260371239229595,0.14490716396655606,0.0
0.07361806316591062,0.0029968324895897494,0.14402123022332552,0.0
0.06750664919694056,0.011449278765830845,0.1453078860411508,0.0
0.07277316722550001,0.0065107949388974835,0.1451335424343994,0.0
0.07022050860172613,0.007484436927370659,0.14525719228472617,0.0
0.07379401609826279,0.00289571319767394,0.14405448961907502,0.0
0.06718317475118336,0.011317582287500176,0.14492513476909813,0.0
0.07162089009534002,0.007999957561487862,0.14446567231007484,0.0
0.06961701150143283,0.008254767448278362,0.14510591567825265,0.0
0.07417569448658162,0.001985639570431658,0.1444954448336893,0.0
0.06809646702962721,0.009895206677342257,0.14511396230625656,0.0
0.07206667328675667,0.007533789579127977,0.1452531689707242,0.0
0.07032457832391004,0.007985741852014285,0.1452097171795031,0.0
0.07326159754533738,0.0035670701941335433,0.1440059416301181,0.0
0.06891936885349378,0.008896888362990423,0.14446808629847602,0.0
0.07040558104581607,0.009344280880007848,0.1450198167586108,0.0
0.0707405889917122,0.0077325412908245674,0.1449970179792664,0.0
0.07256636888579951,0.004415989448546105,0.14448337489168345,0.0
0.07120997562527366,0.006233186272762569,0.14412905503857792,0.0
0.0694075309523977,0.009951801294303094,0.14518638195829175,0.0
0.07137037174348494,0.007337720076766023,0.14494632422284176,0.0
0.07133443013840081,0.005816639163093468,0.14486505328000227,0.0
0.07240999608159018,0.004687965475078281,0.14418886830674033,0.0
0.06858167869826301,0.010725886908279289,0.14555947727673973,0.0
0.0730628458336408,0.005990446327977935,0.14523761215658332,0.0
0.0710930312982835,0.0063790984605668144,0.14533363525076332,0.0
0.07354001087427268,0.003034383420274665,0.144464599426341,0.0
0.06743664353330654,0.011537523452940398,0.14541141932146778,0.0
0.07236171631356672,0.0072685190759323925,0.14476178822061875,0.0
0.07023043277626428,0.007431865624411777,0.1451963061328299,0.0
0.07488245664625842,0.0017930569402047323,0.14424546292370116,0.0
0.06775663110692871,0.01072454580361197,0.14545379822895504,0.0
0.07298640286760363,0.006731272546204632,0.14523975792405103,0.0
0.07029105070722708,0.00807854629499272,0.14543394987987873,0.0
0.0745192855023486,0.0024679008087993633,0.1444334857980592,0.0
0.06813509084404598,0.009944022887232647,0.14529957119221343,0.0
0.07059762723417606,0.008911372293397462,0.1452518278660569,0.0
0.06976265546830361,0.008426697066628583,0.14507614315463818,0.0
0.07341770212861325,0.0030394796180104756,0.14453809196211004,0.0
0.06949711674417457,0.007787794803118086,0.1449460560019083,0.0
0.07077572593399595,0.009021074655184109,0.1453462416346361,0.0
0.07139987604616595,0.007302851355415744,0.1453196877622232,0.0
0.07286194835447649,0.0038757924885502444,0.14497609674645623,0.0
0.07112629069403299,0.00586706469858464,0.14484842358212752,0.0
0.06955585712860311,0.009837539176647566,0.14575232812790012,0.0
0.07183278463277633,0.006929219595100832,0.14528320971527214,0.0
0.07154042381530092,0.005742878406390954,0.1452620202615285,0.0
0.0722222414281656,0.004668653567868896,0.14481704173291227,0.0
0.06797657227236895,0.01118105783236716,0.14565415926625241,0.0
0.07239497570931622,0.006826222756650776,0.14502679050288086,0.0
0.0702494764625402,0.007147283214006807,0.14544172828694918,0.0
0.0726387885378347,0.0038562123604073953,0.14411993552684016,0.0
0.06760589094232212,0.011100591552328056,0.14550127333417812,0.0
0.07355154437441162,0.0059284872923478235,0.1452502185404561,0.0
0.0698809408999611,0.007934779874656185,0.14549081271777303,0.0
0.0726033833746175,0.0035381023333194653,0.14431064061053284,0.0
0.06689591013144376,0.011406899858343584,0.14533658568103142,0.0
0.07248107462895806,0.007483900485503732,0.1451595598649454,0.0
0.0702679837069492,0.007940680735192386,0.14566193767332286,0.0
0.07461369927092781,0.001955867046817189,0.1446432345680278,0.0
0.06849155646461921,0.009347231310275948,0.14536153022784354,0.0
0.07075695046865349,0.008706183279297742,0.14571236320881403,0.0
0.07019905092704903,0.007974744793742274,0.14565603681278666,0.0
0.07277128967896576,0.003570020624401644,0.14515339078347572,0.0
0.06911812056519039,0.008043677573642442,0.145321297087824,0.0
0.07089696179592155,0.0087308596051764,0.14560534305636202,0.0
0.07191915177335163,0.006843388896392452,0.14539049808865762,0.0
0.07253069550164884,0.004192561410970856,0.14501579344460885,0.0
0.07079396495747148,0.006116241945772403,0.14463894303309238,0.0
0.06933323375382826,0.01004541040008192,0.1454438740544169,0.0
0.07188964747067063,0.007009954096073401,0.14524673166832108,0.0
0.07097286832009177,0.006148696678721509,0.14508231223610785,0.0
0.07261196644448834,0.004235744981258509,0.1442089848767501,0.0
0.06774161073465475,0.011287541542952244,0.14551414793898437,0.0
0.07217396166014214,0.007106513632120327,0.1449570530601803,0.0
0.07030097488176523,0.007272810610867811,0.145380305693186,0.0
0.07304246104269754,0.0034372512623371196,0.14416928817859748,0.0
0.06741491763769598,0.011407704521143975,0.14547713345016638,0.0
0.0725376692459189,0.0070981987831829525,0.14502384007261276,0.0
0.06985331414381434,0.007796377872988924,0.1454733783570979,0.0
0.07321331777731392,0.002868086441527181,0.14425672820290664,0.0
0.06712872590169024,0.011078060993917107,0.14530681315741695,0.0
0.07234910992969393,0.007212192679905019,0.14538781587932298,0.0
0.07019985558984942,0.00784707162941356,0.1455294365321918,0.0
0.07443130903617251,0.001801908231009034,0.1446070247420102,0.0
0.0691135608093215,0.008714229907301653,0.14513568820186712,0.0
0.0720250990420698,0.007624180033705239,0.1452909881223426,0.0
0.07092861186607026,0.0074455448920184245,0.1453330988088964,0.0
0.07228741911499728,0.0042545204466009675,0.14458878571853467,0.0
0.06907037723903385,0.008162499447166854,0.14473496612727238,0.0
0.06982461450393372,0.009852023107054604,0.145391302751458,0.0
0.07165844102602494,0.007158816714145745,0.14522715154017823,0.0
0.07191754244775085,0.005092979084608445,0.14491440593175958,0.0
0.07166648765402885,0.005282879505500735,0.14452092582236836,0.0
0.06914145578640173,0.010184617064549572,0.1456852728945342,0.0
0.07272220524814191,0.006303191936396592,0.14524753633112147,0.0
0.07155303019917371,0.005695135080234418,0.14540417735626426,0.0
0.07286436234287766,0.003807127929583541,0.14471028980139372,0.0
0.06798005914450397,0.010990352748674482,0.14584835122208012,0.0
0.07320929446331197,0.00579652259308369,0.14561929054490214,0.0
0.07039377932474367,0.006951750153511781,0.14544172828694918,0.0
0.07330639044122582,0.003122359886450754,0.14423017433049373,0.0
0.06694016658546527,0.011667610605670287,0.1457998032331232,0.0
0.0712598647188979,0.007769555779642555,0.14539264385612533,0.0
0.06936273805650926,0.008217216517593447,0.1456262642891722,0.0
0.07303816950776212,0.003283292446528965,0.1445169025083664,0.0
0.06756726712790335,0.010617257430226497,0.14553104585779258,0.0
0.07289413486649213,0.006689966522451224,0.14551602548551862,0.0
0.07064617522313299,0.007498652636844234,0.1456890279876027,0.0
0.07456568772383781,0.0018574299642360168,0.14473013815047003,0.0
0.06892768370243116,0.008815349199217462,0.14518504085362444,0.0
0.07005582094857943,0.009436817102052821,0.14530547205274963,0.0
0.07009873629793362,0.008208633447722609,0.14529367033167723,0.0
0.07346195858263475,0.00339943211071874,0.14463787014935853,0.0
