-0.022203328872123822,0.06345356267137083,0.10343296568786689,0.0
-0.02220976617452695,0.06344873469456848,0.10348446410709192,0.0
-0.022200378441855722,0.06345758598537278,0.10344449918800583,0.0
-0.02219796445345455,0.06348360341591876,0.10339353721064773,0.0
-0.022206547523325387,0.06343639653162915,0.10351128620043828,0.0
-0.022218081023464325,0.06344846647363502,0.1035214785959099,0.0
-0.02222505476773438,0.06344846647363502,0.10347212594415259,0.0
-0.02224463489587723,0.06343264143856066,0.10342840593199801,0.0
-0.022228809860802872,0.06343720119442954,0.10349680227003125,0.0
-0.02222800519800248,0.06344176095029842,0.10347266238601951,0.0
-0.02221486237226276,0.06345973175284049,0.1034565691300117,0.0
-0.022215130593196224,0.06345919531097356,0.10330985227940706,0.0
-0.022223713663067062,0.06343934696189725,0.10342840593199801,0.0
-0.022236320046939855,0.06340903799641585,0.10358746094554197,0.0
-0.022229882744536727,0.06347636145071524,0.10351879638657527,0.0
-0.022236856488806783,0.06346804660177786,0.103494924723497,0.0
-0.022231223849204045,0.0634892360555215,0.10354105872405275,0.0
-0.0222263958724017,0.06348279875311837,0.1035193328284422,0.0
-0.022201987767456504,0.06346268218310859,0.10349412006069661,0.0
-0.022233369616671755,0.06344471138056652,0.10346622508361639,0.0
-0.022252145082014212,0.0634736792413806,0.10351477307257331,0.0
-0.022216471697863543,0.06348574918338647,0.1035193328284422,0.0
-0.022200646662789186,0.06348709028805379,0.10349841159563203,0.0
-0.022214325930395833,0.06348065298565066,0.10342894237386493,0.0
-0.022206547523325387,0.06352651876527295,0.10342813771106454,0.0
-0.022223981884000526,0.06349862378819272,0.10344020765307041,0.0
-0.0222322967329379,0.06348682206712032,0.10342143218772795,0.0
-0.022226664093335163,0.06349969667192658,0.10345388692067706,0.0
-0.022241416244675665,0.06350774329993049,0.10344959538574164,0.0
-0.022241952686542592,0.0635187403582025,0.1034292105947984,0.0
-0.022246512442411475,0.06355253619581892,0.1033685926638356,0.0
-0.022232028512004436,0.06351203483486591,0.1034292105947984,0.0
-0.022247317105211866,0.06350371998592853,0.10331628958181019,0.0
-0.022240075140008347,0.06353966159101267,0.10317949690574371,0.0
-0.022242220907476056,0.06350479286966239,0.1035879973874089,0.0
-0.022258850605350804,0.06349942845099311,0.10354374093338739,0.0
-0.02226877477988896,0.0635216907884706,0.10341687243185907,0.0
-0.02225348618668153,0.06350640219526317,0.10339407365251466,0.0
-0.022232028512004436,0.06349969667192658,0.10338817279197846,0.0
-0.022216739918797006,0.06348413985778568,0.10337288419877103,0.0
-0.022229078081736336,0.06350559753246278,0.10339943807118393,0.0
-0.022255900175082704,0.06344900291550194,0.10334767143102544,0.0
-0.022254290849481922,0.06346053641564088,0.10336591045450097,0.0
-0.0222411480237422,0.0634972826835254,0.10347212594415259,0.0
-0.02225187686108075,0.06347394746231406,0.10341123979225633,0.0
-0.02227092054735667,0.06346858304364479,0.10338817279197846,0.0
-0.022281649384695217,0.06346858304364479,0.10339219610598041,0.0
-0.022271993431090525,0.06346214574124166,0.10337744395463991,0.0
-0.02225187686108075,0.06346616905524362,0.10339621941998237,0.0
-0.022227736977069017,0.06347126525297943,0.10339461009438158,0.0
-0.022212180162928124,0.06349030893925535,0.10342277329239527,0.0
-0.022225591209601308,0.06349701446259194,0.10344047587400387,0.0
-0.022258314163483877,0.06348092120658412,0.1034048024898532,0.0
-0.022232833174804827,0.06348655384618686,0.10341097157132287,0.0
-0.022244098454010302,0.06348065298565066,0.10339863340838354,0.0
-0.022249462872679576,0.06349942845099311,0.10342706482733069,0.0
-0.02224329379120991,0.06349406403232384,0.10340158383865164,0.0
-0.022247317105211866,0.06349889200912619,0.10341284911785711,0.0
-0.02225268152388114,0.06349889200912619,0.10332755486101566,0.0
-0.022233369616671755,0.06349165004392267,0.10341043512945594,0.0
-0.022223177221200135,0.0635098890673982,0.103513431967906,0.0
-0.022256168396016168,0.06347609322978177,0.10343564789720153,0.0
-0.022259655268151195,0.06348145764845105,0.10345388692067706,0.0
-0.022233906058538682,0.06349674624165848,0.10346863907201756,0.0
-0.022239806919074883,0.06346455972964284,0.10344637673454007,0.0
-0.022276284966025944,0.06346160929937474,0.10342706482733069,0.0
-0.022286477361497564,0.06346697371804401,0.10341338555972404,0.0
-0.022281381163761754,0.0634833351949853,0.10342840593199801,0.0
-0.022268506558955497,0.06351820391633557,0.1033302370703503,0.0
-0.022298279082569965,0.06347126525297943,0.103177351138276,0.0
-0.02229935196630382,0.06347582500884831,0.103513431967906,0.0
-0.02228406337309639,0.06352651876527295,0.10355259222419169,0.0
-0.022310617245509295,0.06349272292765652,0.10344074409493734,0.0
-0.022295865094168792,0.06347743433444909,0.10345442336254398,0.0
-0.0222921100011003,0.06348950427645496,0.10350189846776706,0.0
-0.022309276140841976,0.06342191260122211,0.10337449352437181,0.0
-0.02226153281468544,0.06350479286966239,0.10342706482733069,0.0
-0.022247853547078793,0.06352839631180719,0.10350350779336784,0.0
-0.02225563195414924,0.06346751015991094,0.10359577579447934,0.0
-0.022255363733215777,0.0635157899279344,0.10358772916647543,0.0
-0.022263946803086614,0.06351230305579937,0.10356224817779638,0.0
-0.02226877477988896,0.06352249545127099,0.10353301209604884,0.0
-0.022255363733215777,0.0634913818229892,0.10353971761938544,0.0
-0.022299083745370357,0.06346026819470742,0.10352094215404298,0.0
-0.02232349185031555,0.0634522215667035,0.10349948447936588,0.0
-0.022269311221755888,0.0635275916490068,0.10353569430538348,0.0
-0.022278430733493653,0.06350506109059585,0.1034624699905479,0.0
-0.022304984605906557,0.06347877543911641,0.10340882580385516,0.0
-0.022274943861358625,0.0634943322532573,0.10358531517807426,0.0
-0.022298279082569965,0.0634736792413806,0.10354803246832281,0.0
-0.022300961291904602,0.06345544021790507,0.10351986927030912,0.0
-0.02231249479204354,0.0634500757992358,0.10349894803749896,0.0
-0.022301765954704993,0.0634892360555215,0.10349867981656549,0.0
-0.022303911722172703,0.06345731776443932,0.10352630657271225,0.0
-0.022289696012699128,0.06346214574124166,0.10353944939845197,0.0
-0.02232188252471477,0.06338543455427105,0.10343108814133264,0.0
-0.022293987547634547,0.06346080463657434,0.10338602702451075,0.0
-0.022307935036174658,0.06347394746231406,0.10347802680468879,0.0
-0.022313567675777395,0.0634921864857896,0.10348473232802538,0.0
-0.02232402829218248,0.06346724193897747,0.10346005600214672,0.0
-0.022327515164317507,0.06344202917123189,0.10343162458319957,0.0
-0.022331806699252926,0.06343317788042759,0.10334633032635812,0.0
-0.02232054142004745,0.06345570843883853,0.10337368886157142,0.0
-0.022325905838716725,0.06345275800857043,0.10345469158347745,0.0
-0.022323223629382088,0.0634256676942906,0.10355259222419169,0.0
-0.02232402829218248,0.06346590083431015,0.103524429026178,0.0
-0.02231839565257974,0.06347743433444909,0.10327793398832488,0.0
-0.022321346082847842,0.06342969100829256,0.1032889310465969,0.0
-0.022325905838716725,0.0634492711364354,0.10368643446999007,0.0
-0.0223430719784584,0.06344068806656457,0.10364941998117208,0.0
-0.022319468536313596,0.06344658892710077,0.10354830068925627,0.0
-0.02229640153603572,0.06346643727617708,0.10354561847992164,0.0
-0.0223430719784584,0.06339965026374463,0.10351209086323868,0.0
-0.022328319827117898,0.06343317788042759,0.10352308792151069,0.0
-0.022332611362053317,0.06344578426430038,0.10350404423523477,0.0
-0.022321346082847842,0.06347528856698138,0.1035037760143013,0.0
-0.022301765954704993,0.06345946353190703,0.10346059244401365,0.0
-0.02231249479204354,0.0634345189850949,0.10339648764091583,0.0
-0.022340389769123763,0.06345865886910664,0.10345764201374555,0.0
-0.022322955408448624,0.06341762106628669,0.10356305284059678,0.0
-0.022294792210434938,0.06345329445043736,0.10355849308472789,0.0
-0.022327246943384043,0.0634471253689677,0.10356412572433063,0.0
-0.02232697872245058,0.06346455972964284,0.10354508203805471,0.0
-0.02231169012924315,0.06347475212511446,0.10353971761938544,0.0
-0.02231759098977935,0.06349165004392267,0.10354964179392359,0.0
-0.0223460224087265,0.06343183677576027,0.10351128620043828,0.0
-0.022319200315380133,0.06349486869512423,0.10355098289859091,0.0
-0.02232778338525097,0.06346536439244323,0.103572440573268,0.0
-0.02232858804805136,0.06346160929937474,0.10358531517807426,0.0
-0.02230820325710812,0.06350452464872892,0.10355822486379443,0.0
-0.022326442280583652,0.06345436733417122,0.103513431967906,0.0
-0.022311153687376222,0.06352812809087373,0.10356519860806448,0.0
-0.022306057489640412,0.06350559753246278,0.10354749602645588,0.0
-0.022308471478041585,0.06347797077631602,0.10349546116536393,0.0
-0.022307666815241194,0.06345731776443932,0.10335410873342857,0.0
-0.022311958350176613,0.06348360341591876,0.10341472666439136,0.0
-0.022316518106045496,0.06347046059017904,0.10357968253847152,0.0
-0.02231839565257974,0.06347528856698138,0.10350189846776706,0.0
-0.02230954436177544,0.0634943322532573,0.1036263529808942,0.0
-0.022322418966581697,0.06346724193897747,0.10363466782983158,0.0
-0.022294792210434938,0.06350827974179742,0.10357297701513493,0.0
-0.022299888408170748,0.06344524782243345,0.10358102364313884,0.0
-0.022287550245231418,0.06349486869512423,0.10357565922446957,0.0
-0.02230873969897505,0.0635069386371301,0.10347373526975337,0.0
-0.02231839565257974,0.06346321862497552,0.10350404423523477,0.0
-0.02231544522231164,0.06345704954350585,0.10357163591046761,0.0
-0.022315177001378177,0.06343666475256261,0.10354642314272203,0.0
-0.022314908780444714,0.06345329445043736,0.10354749602645588,0.0
-0.022341730873791082,0.0633953587288092,0.10351960104937566,0.0
-0.022327246943384043,0.06344497960149999,0.10354481381712125,0.0
-0.022306862152440803,0.06343961518283071,0.10355500621259286,0.0
-0.02231464055951125,0.06343720119442954,0.10351423663070639,0.0
-0.022341194431924154,0.06340125958934541,0.10353676718911733,0.0
-0.02233583001325488,0.06341762106628669,0.10350887221203711,0.0
-0.02231759098977935,0.06346670549711055,0.10339085500131309,0.0
-0.022322418966581697,0.06339482228694228,0.10358772916647543,0.0
-0.02229640153603572,0.06340233247307926,0.10361884279475722,0.0
-0.022289696012699128,0.06339133541480725,0.10356197995686292,0.0
-0.022347899955260746,0.06331837932090513,0.10355098289859091,0.0
-0.02236345676940164,0.06341037910108317,0.10356385750339717,0.0
-0.022338512222589518,0.06342083971748826,0.10355312866605862,0.0
-0.022336098234188344,0.06343317788042759,0.10353435320071616,0.0
-0.022343340199391864,0.06343639653162915,0.10349599760723086,0.0
-0.022330197373652143,0.06343773763629647,0.10350270313056745,0.0
-0.022358628792599294,0.06341279308948435,0.10357753677100381,0.0
-0.02236855296713745,0.06340474646148044,0.10364512844623666,0.0
-0.022332343141119853,0.06342513125242367,0.10370842858653409,0.0
-0.02232402829218248,0.06339884560094423,0.10362662120182767,0.0
-0.02231544522231164,0.06345651310163893,0.10356922192206644,0.0
-0.022359433455399685,0.06342244904308904,0.10353757185191773,0.0
-0.022340389769123763,0.06342834990362524,0.10361884279475722,0.0
-0.022328319827117898,0.06339669983347652,0.10357404989886879,0.0
-0.022341194431924154,0.06342164438028865,0.1035008255840332,0.0
-0.022341194431924154,0.06341601174068591,0.1033146802562094,0.0
-0.02232778338525097,0.06344176095029842,0.10354803246832281,0.0
-0.02234441308312572,0.06339884560094423,0.1036899213421251,0.0
-0.022293182884834156,0.06347448390418099,0.1036411051322347,0.0
-0.022317859210712814,0.0634323732176272,0.10360006732941476,0.0
-0.022341194431924154,0.06344444315963306,0.10357431811980225,0.0
-0.022327515164317507,0.06342244904308904,0.10355715198006057,0.0
-0.022371235176472087,0.0634050146824139,0.10352362436337761,0.0
-0.022350045722728456,0.0634795801019168,0.10357673210820342,0.0
-0.02236050633913354,0.0634404198456311,0.10358236474780616,0.0
-0.022381964013810634,0.06346590083431015,0.103620452120358,0.0
-0.022372576281139405,0.06345195334577004,0.10363439960889811,0.0
-0.022383305118477952,0.0634323732176272,0.1036242072134265,0.0
-0.022389742420881084,0.06343317788042759,0.10360999150395292,0.0
-0.02239296107208265,0.0634227172640225,0.1036212567831584,0.0
-0.022363188548468176,0.0634353236478953,0.10365478439984135,0.0
-0.022379281804475997,0.06340233247307926,0.10361589236448912,0.0
-0.02238786487434684,0.0634884313927211,0.10359577579447934,0.0
-0.022373917385806723,0.06346804660177786,0.10362957163209577,0.0
-0.022352727932063093,0.0634862856252534,0.10361884279475722,0.0
-0.022367480083403595,0.06346885126457825,0.10355017823579052,0.0
-0.022383573339411416,0.0634921864857896,0.10357109946860069,0.0
-0.02236479787406896,0.06348950427645496,0.10360677285275136,0.0
-0.02235245971112963,0.06347797077631602,0.10360248131781594,0.0
-0.02236426143220203,0.0634522215667035,0.10360248131781594,0.0
-0.022368016525270523,0.063455976659772,0.10357083124766722,0.0
-0.022391351746481866,0.063426472357091,0.10352684301457918,0.0
-0.02236426143220203,0.06348145764845105,0.10342277329239527,0.0
-0.02239537506048382,0.06345785420630624,0.10361106438768677,0.0
-0.02240985899089086,0.06343505542696183,0.10368562980718968,0.0
-0.02241710095609438,0.06342459481055675,0.10360140843408208,0.0
-0.02243238954930181,0.06341923039188747,0.1035635892824637,0.0
-0.022429707339967173,0.06342995922922602,0.10355661553819365,0.0
-0.022429707339967173,0.06342808168269178,0.10354615492178856,0.0
-0.022445264154108066,0.06340340535681312,0.10357485456166918,0.0
-0.02244848280530963,0.06339374940320842,0.10355661553819365,0.0
-0.022446068816908457,0.06336612264706167,0.10360114021314862,0.0
-0.022460552747315496,0.06332883993731021,0.10355312866605862,0.0
-0.022407176781556223,0.06342995922922602,0.10357565922446957,0.0
-0.02241200475835857,0.0634227172640225,0.10354535025898817,0.0
-0.02240905432809047,0.06343586008976222,0.10363091273676309,0.0
-0.0224302437818341,0.06340313713587965,0.10364888353930515,0.0
-0.022428366235299854,0.06341064732201664,0.10360891862021906,0.0
-0.022442850165706893,0.06336826841452937,0.10357458634073571,0.0
-0.022413077642092424,0.06340286891494619,0.10362796230649499,0.0
-0.022403421688487732,0.06342700879895792,0.10359845800381398,0.0
-0.022437753967971083,0.06338033835653524,0.10356600327086488,0.0
-0.022429707339967173,0.06344390671776613,0.10360784573648521,0.0
-0.022410395432757788,0.06342379014775636,0.1035938982479451,0.0
-0.022433462433035664,0.06340555112428083,0.10353623074725041,0.0
-0.0224331942121022,0.06344256561309881,0.1035702948058003,0.0
-0.02243453531676952,0.06340152781027887,0.10360382242248325,0.0
-0.022409590769957397,0.06344873469456848,0.1036448602253032,0.0
-0.022417369177027843,0.06339133541480725,0.10350806754923672,0.0
-0.02241120009555818,0.06340313713587965,0.10341928642026024,0.0
-0.022488984166262646,0.06341842572908708,0.10356600327086488,0.0
-0.02245062857277734,0.06339723627534345,0.10361079616675331,0.0
-0.02243829040983801,0.06337416927506558,0.10360945506208599,0.0
-0.022422465374763653,0.06339965026374463,0.10360596818995096,0.0
-0.022409590769957397,0.06342781346175831,0.10358102364313884,0.0
-0.02245357900304544,0.06339160363574071,0.10358182830593923,0.0
-0.02244338660757382,0.06341762106628669,0.1035126273051056,0.0
-0.02247020870092019,0.06340045492654502,0.10352067393310951,0.0
-0.02247986465452488,0.06337229172853133,0.1037762884827004,0.0
-0.022461357410115887,0.06339509050787574,0.10365880771384331,0.0
-0.022469404038119797,0.06339857738001077,0.10353971761938544,0.0
-0.02246886759625287,0.0634109155429501,0.10364083691130124,0.0
-0.022476646003323317,0.06341118376388356,0.10371325656333644,0.0
-0.022497567236133484,0.0633688048563963,0.10368294759785504,0.0
-0.022494885026798847,0.06335163871665463,0.10366819544651454,0.0
-0.022473695573055216,0.06340233247307926,0.10365907593477677,0.0
-0.02249354392213153,0.06340179603121233,0.10357592744540303,0.0
-0.022504004538536612,0.06337095062386401,0.10361213727142063,0.0
-0.02248335152665991,0.06342539947335714,0.10367087765584918,0.0
-0.022517147364276333,0.06339750449627692,0.10355554265445979,0.0
-0.022528412643481807,0.06332320729770748,0.10357163591046761,0.0
-0.022498371898933875,0.0633658544261282,0.10377280161056537,0.0
-0.022497835457066948,0.06337416927506558,0.10370252772599789,0.0
-0.022504272759470076,0.06332535306517519,0.10360409064341672,0.0
-0.02248040109639181,0.063341446321183,0.10358182830593923,0.0
-0.022500517666401584,0.06335780779812429,0.10347802680468879,0.0
-0.022501322329201975,0.06336639086799513,0.10368643446999007,0.0
-0.022512855829340914,0.06337202350759787,0.1036861662490566,0.0
-0.02251634270147594,0.06338865320547261,0.10360006732941476,0.0
-0.022502126992002366,0.06334600607705189,0.1036242072134265,0.0
-0.022461357410115887,0.06341627996161937,0.10367919250478655,0.0
-0.022510978282806668,0.06331998864650591,0.10362152500409186,0.0
-0.02253592282961879,0.06333527723971334,0.10360248131781594,0.0
-0.022513124050274377,0.06334600607705189,0.10361321015515448,0.0
-0.022516074480542478,0.06339160363574071,0.1036322538414304,0.0
-0.022541287248288064,0.0633717552866644,0.10357109946860069,0.0
-0.022516074480542478,0.06335163871665463,0.10361642880635605,0.0
-0.022504809201337003,0.06333313147224563,0.10363091273676309,0.0
-0.02251768380614326,0.06334600607705189,0.10361079616675331,0.0
-0.022522511782945606,0.06336075822839239,0.10359255714327778,0.0
-0.0225351181668184,0.06333125392571139,0.10354105872405275,0.0
-0.02255040676002583,0.0633186475418386,0.10358182830593923,0.0
-0.022515001596808623,0.06335029761198731,0.103745979517219,0.0
-0.022513660492141305,0.06331596533250396,0.1036234025506261,0.0
-0.022516074480542478,0.06333125392571139,0.10342679660639723,0.0
-0.02252707153881449,0.06327546397155094,0.10366309924877873,0.0
-0.02251178294560706,0.06331757465810474,0.10378165290136968,0.0
-0.022505613864137394,0.0633089915882339,0.10370547815626599,0.0
-0.02249649435239963,0.063330449262911,0.10371003791213487,0.0
-0.02249220281746421,0.06335002939105384,0.10367624207451845,0.0
-0.02250239521293583,0.06335271160038848,0.10356519860806448,0.0
-0.02249810367800041,0.06334332386771725,0.1036537115161075,0.0
-0.022489520608129573,0.06331355134410278,0.1037379328892151,0.0
-0.022518220248010187,0.06330362716956463,0.10365907593477677,0.0
-0.022516610922409405,0.06332776705357636,0.10359577579447934,0.0
-0.02249729901520002,0.06331811109997167,0.10372210785414074,0.0
-0.02250159055013544,0.06327385464595016,0.10372854515654387,0.0
-0.02251634270147594,0.06330765048356658,0.10366578145811337,0.0
-0.02251768380614326,0.06330791870450005,0.10367999716758694,0.0
-0.02251392871307477,0.06333876411184837,0.10370976969120141,0.0
-0.022547188108824265,0.06332052508837284,0.10366980477211532,0.0
-0.022526266876014098,0.06326044359927697,0.10368267937692158,0.0
-0.022533508841217617,0.06327224532034938,0.10368938490025817,0.0
-0.02251044184093974,0.06328619280888949,0.1035732452360684,0.0
-0.022491934596530747,0.06326580801794625,0.10340533893172013,0.0
-0.022494885026798847,0.06328297415768792,0.10364137335316817,0.0
-0.02250534564320393,0.06325749316900887,0.10380337879698023,0.0
-0.022497567236133484,0.0632853881460891,0.10375429436615638,0.0
-0.02247691422425678,0.06333661834438066,0.103716475214538,0.0
-0.022511514724673595,0.06329236189035915,0.10360194487594901,0.0
-0.022512855829340914,0.06329289833222608,0.10361052794581985,0.0
-0.02251473337587516,0.06325105586660575,0.10363466782983158,0.0
-0.02251258760840745,0.06331301490223586,0.10363359494609772,0.0
-0.022510173620006277,0.06333071748384446,0.10361267371328756,0.0
-0.02249729901520002,0.06333420435597949,0.10362662120182767,0.0
-0.022508027852538567,0.0633030907276977,0.10366229458597834,0.0
-0.02251902491081058,0.0632912890066253,0.10360033555034823,0.0
-0.022538336818019963,0.06329048434382491,0.10363788648103314,0.0
-0.022539677922687282,0.06332991282104407,0.10373551890081392,0.0
-0.022556039399628566,0.06331113735570161,0.10374866172655364,0.0
-0.022547992771624656,0.06332910815824368,0.10380498812258102,0.0
-0.022539409701753818,0.0632971898671615,0.10381598518085303,0.0
-0.022520902457344824,0.06329316655315954,0.10379050419217398,0.0
-0.022526266876014098,0.06334171454211647,0.10377548381990001,0.0
-0.022533508841217617,0.06335727135625736,0.10375402614522292,0.0
-0.022538336818019963,0.06332723061170943,0.10375670835455755,0.0
-0.02254316479482231,0.0632853881460891,0.10379077241310744,0.0
-0.022517415585209796,0.06330577293703234,0.10374758884281979,0.0
-0.022524657550413316,0.06328780213449027,0.10378755376190588,0.0
-0.02250534564320393,0.06329209366942569,0.10379855082017789,0.0
-0.02253592282961879,0.06327439108781709,0.10373659178454778,0.0
-0.02252412110854639,0.06323818126179949,0.10378621265723856,0.0
-0.02251339227120784,0.0632306710756625,0.10373846933108202,0.0
-0.022547188108824265,0.06324730077353725,0.10354347271245393,0.0
-0.022522243562012143,0.06329182544849223,0.1038095478784499,0.0
-0.022537532155219572,0.0632647351342124,0.10394204901958097,0.0
-0.022515001596808623,0.06331435600690317,0.10386614249541075,0.0
-0.022525998655080634,0.06325078764567228,0.10379908726204481,0.0
-0.02252573043414717,0.06321430959872122,0.10373927399388241,0.0
-0.022497567236133484,0.06336612264706167,0.10376609608722878,0.0
-0.02249354392213153,0.06334707896078574,0.10377172872683152,0.0
-0.02250829607347203,0.06329504409969379,0.10379425928524247,0.0
-0.02250749141067164,0.06330228606489731,0.10372720405187655,0.0
-0.022518756689877115,0.06331328312316932,0.10371781631920532,0.0
-0.022519561352677506,0.06329906741369574,0.10381035254125029,0.0
-0.022529485527215662,0.06325293341313999,0.10381974027392152,0.0
-0.022541287248288064,0.06325963893647658,0.1038028423551133,0.0
-0.022511514724673595,0.06329236189035915,0.1038347606461955,0.0
-0.022514196934008232,0.06327117243661552,0.10380016014577867,0.0
-0.022518220248010187,0.06327680507621826,0.10369448109799398,0.0
-0.02251902491081058,0.06323710837806563,0.10361776991102337,0.0
-0.022525998655080634,0.06322128334299128,0.1036301080739627,0.0
-0.022524389329479852,0.06323630371526524,0.10390557097262991,0.0
-0.022519561352677506,0.06324113169206759,0.10384683058820136,0.0
-0.022539677922687282,0.06327626863435133,0.10377548381990001,0.0
-0.02253726393428611,0.06325346985500692,0.10376877829656342,0.0
-0.022512051166540523,0.06331837932090513,0.10379345462244208,0.0
-0.02254906565535851,0.06328297415768792,0.1037400786566828,0.0
-0.02253163129468337,0.06330389539049809,0.10374115154041666,0.0
-0.022511514724673595,0.06327090421568206,0.10377682492456733,0.0
-0.02249810367800041,0.0632765368552848,0.10376690075002917,0.0
-0.022519561352677506,0.06325051942473882,0.10372747227281001,0.0
-0.02252653509694756,0.06324300923860184,0.10374249264508398,0.0
-0.02249729901520002,0.06330791870450005,0.10375617191269063,0.0
-0.022494885026798847,0.06332803527450982,0.10371432944707029,0.0
-0.022500517666401584,0.063330449262911,0.10368509336532275,0.0
-0.02249729901520002,0.06329021612289144,0.10376797363376303,0.0
-0.02247610956145639,0.06330228606489731,0.10376019522669258,0.0
-0.02246752649158555,0.063311942018502,0.10370976969120141,0.0
-0.022495957910532702,0.06327492752968401,0.10363627715543236,0.0
-0.022509905399072813,0.06325400629687385,0.10369126244679241,0.0
-0.022470745142787116,0.06329772630902843,0.10373390957521314,0.0
-0.022494080363998456,0.06327117243661552,0.10371567055173761,0.0
-0.022486033735994546,0.06330872336730044,0.10374115154041666,0.0
-0.02249139815466382,0.0632727817622163,0.10373230024961236,0.0
-0.022491129933730356,0.06328565636702256,0.10369984551666325,0.0
-0.022476646003323317,0.06323228040126329,0.10371808454013878,0.0
-0.02246591716598477,0.06326205292487776,0.10371701165640493,0.0
-0.02248201042199259,0.063282437715821,0.10370386883066521,0.0
-0.02248791128252879,0.06326071182021044,0.10382671401819159,0.0
-0.02251124650374013,0.06324354568046876,0.10378031179670236,0.0
-0.022499713003601193,0.06325186052940614,0.10372934981934426,0.0
-0.02248496085226069,0.06326419869234547,0.10372934981934426,0.0
-0.022481742201059127,0.06325132408753921,0.1037046734934656,0.0
-0.022503468096669685,0.06324086347113413,0.10374437019161822,0.0
-0.02249515324773231,0.06324756899447072,0.10375670835455755,0.0
-0.022478791770791026,0.0632786826227525,0.10372800871467694,0.0
-0.02246511250318438,0.06328565636702256,0.10375214859868867,0.0
-0.022495957910532702,0.06326741734354703,0.10374571129628554,0.0
-0.022485497294127618,0.0633178428790382,0.1037821893432366,0.0
-0.022494080363998456,0.06329182544849223,0.10375375792428945,0.0
-0.02250615030600432,0.06328967968102452,0.10373927399388241,0.0
-0.02249810367800041,0.0633540527050558,0.10369367643519359,0.0
-0.022503468096669685,0.06331301490223586,0.10367355986518381,0.0
-0.022510710061873204,0.06329692164622804,0.10366148992317795,0.0
-0.02250615030600432,0.06334037343744915,0.10366765900464761,0.0
-0.02249810367800041,0.06332857171637675,0.10368777557465739,0.0
-0.022477987107990635,0.06334466497238457,0.1036293034111623,0.0
-0.02245652943331354,0.06336236755399317,0.10363359494609772,0.0
-0.022492739259331138,0.06328914323915759,0.10363788648103314,0.0
-0.02251044184093974,0.06328646102982295,0.1036242072134265,0.0
-0.022513660492141305,0.063282437715821,0.10362393899249303,0.0
-0.022472354468387898,0.0633452014142515,0.10362072034129147,0.0
-0.022493275701198065,0.06335002939105384,0.10357378167793532,0.0
-0.022492471038397674,0.06330362716956463,0.10370574637719945,0.0
-0.022507223189738176,0.06328967968102452,0.10369126244679241,0.0
-0.0224900570499965,0.06332588950704211,0.10364673777183744,0.0
-0.022498908340800802,0.06339079897294032,0.10367785140011923,0.0
-0.02250534564320393,0.0634286181245587,0.1036537115161075,0.0
-0.022520902457344824,0.06340581934521429,0.10362742586462806,0.0
-0.022533508841217617,0.06342244904308904,0.10361508770168873,0.0
-0.0225351181668184,0.06339750449627692,0.10357458634073571,0.0
-0.022507759631605104,0.0633961633916096,0.10366283102784526,0.0
-0.022495957910532702,0.06348413985778568,0.10364834709743823,0.0
-0.022501858771068903,0.0634294227873591,0.10355420154979247,0.0
-0.022516074480542478,0.06335968534465854,0.1035879973874089,0.0
-0.022495421468665774,0.0634197668337544,0.1035702948058003,0.0
-0.02250668674787125,0.06338865320547261,0.10352898878204689,0.0
-0.0224871066197284,0.0634020642521458,0.10356037063126214,0.0
-0.022516074480542478,0.06334600607705189,0.1035635892824637,0.0
-0.02250024944546812,0.06336344043772703,0.10360006732941476,0.0
-0.02248201042199259,0.06339374940320842,0.10363842292290007,0.0
-0.022470745142787116,0.06338784854267222,0.10359014315487661,0.0
-0.022511514724673595,0.06334386030958418,0.10357941431753806,0.0
-0.022536191050552254,0.06334386030958418,0.10360194487594901,0.0
-0.022534313504018008,0.06335056583292077,0.10357431811980225,0.0
-0.0225410190273546,0.06337202350759787,0.10353435320071616,0.0
-0.02255711228336242,0.06331462422783664,0.10338817279197846,0.0
-0.022510710061873204,0.06339401762414189,0.10336161891956555,0.0
-0.022513660492141305,0.06340313713587965,0.10364164157410163,0.0
-0.022519561352677506,0.06341923039188747,0.10361133260862024,0.0
-0.022528412643481807,0.06335619847252351,0.10350887221203711,0.0
-0.02252707153881449,0.06334198276304993,0.10350002092123281,0.0
-0.022530290190016053,0.06336612264706167,0.10351745528190795,0.0
-0.02254531056229002,0.06333983699558222,0.10349465650256354,0.0
-0.02255925805083013,0.06328404704142178,0.10348526876989231,0.0
-0.022540750806421136,0.06338597099613798,0.10354991001485706,0.0
-0.022584470818575716,0.06338677565893837,0.10350431245616823,0.0
-0.022581252167374152,0.06337282817039826,0.10353971761938544,0.0
-0.022593858551246945,0.06335539380972312,0.10349707049096471,0.0
-0.022609683586321302,0.06338382522867027,0.10348446410709192,0.0
-0.022619339539925995,0.06337497393786597,0.10348392766522499,0.0
-0.022592249225646163,0.06338087479840217,0.10344369452520544,0.0
-0.0225860801441765,0.06335217515852155,0.10339139144318002,0.0
-0.02257669241150527,0.06337604682159982,0.10347024839761834,0.0
-0.02260941536538784,0.06331247846036893,0.10339621941998237,0.0
-0.02261236579565594,0.06338758032173876,0.10343162458319957,0.0
-0.022636237458734207,0.06336397687959396,0.10341767709465946,0.0
-0.02267700704062069,0.06334734718171921,0.10340507071078667,0.0
-0.0226880040988927,0.06337497393786597,0.1033626918032994,0.0
-0.022685590110491528,0.06336531798426127,0.10337663929183952,0.0
-0.02268129857555611,0.06337148706573094,0.10342170040866142,0.0
-0.022716167296906387,0.06334117810024954,0.10337690751277298,0.0
-0.022731455890113817,0.06334922472825345,0.10337127487317024,0.0
-0.022755863995059012,0.06332293907677401,0.10336108247769862,0.0
-0.02275505933225862,0.06337202350759787,0.10333506504715265,0.0
-0.02275640043692594,0.06337041418199708,0.10327096024405483,0.0
-0.02274406227398661,0.06339160363574071,0.10327739754645796,0.0
-0.02276230129746214,0.06335485736785619,0.10326210895325053,0.0
-0.02279073271640929,0.06334010521651569,0.10321195163869282,0.0
-0.02279502425134471,0.06337738792626714,0.1032578174183151,0.0
-0.02280307087934862,0.06337336461226518,0.10318727531281416,0.0
-0.022823723891225323,0.06333447257691295,0.10318083801041103,0.0
-0.022834989170430798,0.06332696239077597,0.10318727531281416,0.0
-0.022802534437481693,0.06335673491439044,0.10317118205680634,0.0
-0.02281111750735253,0.06335727135625736,0.10317976512667718,0.0
-0.022825333216826105,0.06334681073985228,0.10311244167237779,0.0
-0.022829892972694988,0.06329236189035915,0.1031381908819903,0.0
-0.02282774720522728,0.06329370299502647,0.10313872732385723,0.0
-0.0228379396006989,0.06330040851836306,0.10311968363758131,0.0
-0.022857519728841747,0.06330925980916736,0.10311646498637975,0.0
-0.022883805380321188,0.06327439108781709,0.10310359038157349,0.0
-0.022879782066319233,0.06328297415768792,0.1031411413122584,0.0
-0.022869589670847613,0.06332481662330826,0.10314140953319187,0.0
-0.022905263054998282,0.06324569144793647,0.10308186448596293,0.0
-0.02287951384538577,0.06329504409969379,0.10315267481239734,0.0
-0.022856446845107892,0.06332186619304016,0.10318003334761064,0.0
-0.02290794526433292,0.06327144065754899,0.10308293736969679,0.0
-0.02291170035740141,0.0632698313319482,0.1031234387306498,0.0
-0.022876295194184205,0.06332642594890904,0.10316742696373785,0.0
-0.022886487589655825,0.06333742300718105,0.10314623750999422,0.0
-0.02288165961285348,0.06333152214664485,0.10313765444012338,0.0
-0.022873612984849568,0.06330765048356658,0.10321409740616053,0.0
-0.02288246427565387,0.0633001402974296,0.10322563090629946,0.0
-0.022878440961651914,0.06329531232062725,0.10316394009160282,0.0
-0.022847863775237055,0.06332106153023977,0.103147846835595,0.0
-0.022819968798156832,0.06329021612289144,0.10320149102228773,0.0
-0.022802802658415156,0.06324730077353725,0.10316796340560477,0.0
-0.0227301147854465,0.0633688048563963,0.10319773592921924,0.0
-0.0227478173670551,0.06335593025159005,0.10318807997561455,0.0
-0.02277168903013337,0.0633266941698425,0.10316206254506857,0.0
-0.022774907681334933,0.06335753957719083,0.10317896046387678,0.0
-0.022795292472278173,0.063341446321183,0.10320149102228773,0.0
-0.022785904739606944,0.06330630937889926,0.10318807997561455,0.0
-0.022785904739606944,0.06332562128610865,0.10322670379003332,0.0
-0.02278188142560499,0.0633266941698425,0.10325218477871237,0.0
-0.022741648285585437,0.0633755103797329,0.10317788758014293,0.0
-0.022776248786002252,0.06330523649516541,0.10311512388171243,0.0
-0.022738697855317336,0.06331972042557245,0.10323528685990416,0.0
-0.022776517006935715,0.06326419869234547,0.10328007975579259,0.0
-0.022784563634939626,0.06329638520436111,0.10328276196512723,0.0
-0.022754791111325157,0.06333769122811451,0.1032379690692388,0.0
-0.022744866936787,0.06332052508837284,0.10325138011591198,0.0
-0.022748085587988565,0.06332213441397362,0.1032674733719198,0.0
-0.022737624971583482,0.06333983699558222,0.10326532760445209,0.0
-0.022761764855595213,0.06326339402954508,0.10328276196512723,0.0
-0.022750767797323202,0.06330040851836306,0.1032940272443327,0.0
-0.022769811483599123,0.06328029194835329,0.10325808563924857,0.0
-0.022726896134244935,0.0633245484023748,0.10323555508083762,0.0
-0.02271428975037214,0.06332910815824368,0.103243869929775,0.0
-0.022726091471444543,0.0632403270292672,0.10325593987178086,0.0
-0.022712143982904432,0.06328619280888949,0.10325996318578282,0.0
-0.022722068157442588,0.06329853097182882,0.10327149668592175,0.0
-0.022730651227313426,0.06327251354128284,0.10322670379003332,0.0
-0.022746476262387783,0.06325346985500692,0.10321034231309203,0.0
-0.02274272116931929,0.06323254862219675,0.10320283212695505,0.0
-0.022717240180640242,0.06330738226263312,0.10317466892894137,0.0
-0.02270758422703555,0.06331676999530435,0.10318244733601181,0.0
-0.022713216866638287,0.06330362716956463,0.1032350186389707,0.0
-0.02269524606409622,0.06329021612289144,0.10325111189497851,0.0
-0.022707047785168622,0.0632188693545901,0.10322160759229751,0.0
-0.022715899075972924,0.06327036777381513,0.10321248808055974,0.0
-0.02269605072689661,0.06328967968102452,0.10314596928906075,0.0
-0.022682639680223427,0.06333903233278183,0.10314596928906075,0.0
-0.022680225691822254,0.06331060091383468,0.10312290228878288,0.0
-0.022680493912755718,0.06325266519220653,0.10317869224294332,0.0
-0.02271643551783985,0.06319392480777798,0.1031330946842545,0.0
-0.02267700704062069,0.06332267085584055,0.10319371261521729,0.0
-0.02266037734274594,0.06329450765782686,0.10314328707972611,0.0
-0.022658768017145156,0.06331408778596971,0.10313363112612142,0.0
-0.022703024471166667,0.06328619280888949,0.10319344439428382,0.0
-0.02266896041261678,0.06332428018144133,0.10314918794026232,0.0
-0.02259922296991622,0.06337685148440021,0.10312531627718405,0.0
-0.022653671819409346,0.063282437715821,0.10304753220647958,0.0
-0.02271133932010404,0.06316334762136312,0.10301239526419584,0.0
-0.022657158691544374,0.06335137049572116,0.1031507972658631,0.0
-0.022654476482209737,0.06330630937889926,0.10317896046387678,0.0
-0.022639724330869235,0.06334198276304993,0.1031891528593484,0.0
-0.0226791528080884,0.06330067673929653,0.10313738621918991,0.0
-0.022711607541037505,0.06326258936674468,0.10312960781211947,0.0
-0.022717508401573706,0.0632875339135568,0.1031507972658631,0.0
-0.022689076982626556,0.06338221590306949,0.10321597495269477,0.0
-0.022701415145565885,0.06334734718171921,0.10316876806840516,0.0
-0.022743525832119683,0.06328297415768792,0.10282276306423702,0.0
-0.02278268608840538,0.06321243205218698,0.1026647809344269,0.0
-0.02274835380892203,0.0633245484023748,0.10297243034510975,0.0
-0.02265394004034281,0.06337202350759787,0.10353542608445002,0.0
-0.02264508874953851,0.06330040851836306,0.10349519294443046,0.0
-0.022681566796489572,0.06322503843605977,0.10332835952381605,0.0
-0.02269739183156393,0.06330201784396385,0.10316823162653824,0.0
-0.02271643551783985,0.06333152214664485,0.10311297811424472,0.0
-0.0226850536686246,0.06333983699558222,0.10342277329239527,0.0
-0.022737624971583482,0.06328109661115368,0.10327364245338946,0.0
-0.02280897173988482,0.0632196740173905,0.10339568297811544,0.0
-0.02288836513619007,0.06307885802732206,0.10329134503499807,0.0
-0.02258554370230957,0.06346429150870937,0.10326854625565365,0.0
-0.022510173620006277,0.06347394746231406,0.10292656456548746,0.0
-0.022601905179250856,0.06337604682159982,0.10292468701895321,0.0
-0.022622021749260632,0.06327626863435133,0.10392622398450661,0.0
-0.02259868652804929,0.0633755103797329,0.1036596123766437,0.0
-0.02261960776085946,0.06329853097182882,0.1034380618856027,0.0
-0.022513124050274377,0.06340474646148044,0.10355339688699208,0.0
-0.022510173620006277,0.06340930621734932,0.10352013749124259,0.0
-0.022496226131466165,0.06346241396217513,0.10352603835177879,0.0
-0.022509905399072813,0.06342003505468786,0.10351074975857136,0.0
-0.022615852667790967,0.06331247846036893,0.10350994509577097,0.0
-0.022578569958039515,0.06331542889063703,0.10355125111952437,0.0
-0.022500785887335048,0.06347019236924557,0.10357431811980225,0.0
-0.022518756689877115,0.0634404198456311,0.10355634731726018,0.0
-0.02251044184093974,0.0634256676942906,0.10354105872405275,0.0
-0.022475036677722535,0.06345195334577004,0.10358638806180812,0.0
-0.022464307840383987,0.06347287457858021,0.10360382242248325,0.0
-0.02244258194477343,0.063455976659772,0.10356037063126214,0.0
-0.022477987107990635,0.06333795944904798,0.10356841725926605,0.0
-0.022457602317047395,0.06346455972964284,0.10355098289859091,0.0
-0.022398325490751922,0.06353161496300876,0.10356895370113298,0.0
-0.022415491630493597,0.06350935262553127,0.10359416646887856,0.0
-0.022410931874624715,0.06355950994008898,0.10361884279475722,0.0
-0.02236479787406896,0.06359008712650384,0.1036381547019666,0.0
-0.02235541014139773,0.06367296739494412,0.10358772916647543,0.0
-0.022350045722728456,0.0636118130221144,0.10361106438768677,0.0
-0.022299083745370357,0.06366599365067406,0.10373310491241275,0.0
-0.0222891595708322,0.06369657083708892,0.1036743645279842,0.0
-0.022325905838716725,0.06365633769706937,0.10358370585247348,0.0
-0.02227387097762477,0.06375772520991864,0.10361884279475722,0.0
-0.02222854163986941,0.06376630827978948,0.10363922758570046,0.0
-0.022248121768012257,0.06379956767553897,0.10354079050311929,0.0
-0.022288623128965273,0.06364990039466624,0.10353247565418192,0.0
-0.02224543955867762,0.06368315979041574,0.103638959364767,0.0
-0.022275480303225553,0.06363702578985998,0.10360918684115253,0.0
-0.022253754407614994,0.06373948618644311,0.1036242072134265,0.0
-0.02221781280253086,0.06380251810580707,0.10362152500409186,0.0
-0.022196891569720694,0.06378025576832959,0.10361508770168873,0.0
-0.02216819192984008,0.06380117700113976,0.10363091273676309,0.0
-0.02218643095331561,0.06370461746509283,0.10362528009716035,0.0
-0.02217033769730779,0.06373680397710847,0.10362152500409186,0.0
-0.02218053009277941,0.06378937528006735,0.10369018956305856,0.0
-0.022175970336910527,0.06376362607045484,0.1036655132371799,0.0
-0.022158535976235388,0.0637343899887073,0.10362286610875918,0.0
-0.022100063812740302,0.06380788252447635,0.10370789214466716,0.0
-0.022087189207934045,0.06382129357114953,0.10377280161056537,0.0
-0.0220882620916679,0.06379581258247048,0.10372720405187655,0.0
-0.02205392981218455,0.0638599173855683,0.10370279594693135,0.0
-0.022070291289125833,0.06377408668685992,0.10368723913279046,0.0
-0.022058221347119968,0.06383765504809082,0.10366739078371415,0.0
-0.022068413742591587,0.06383014486195383,0.10362796230649499,0.0
-0.022067609079791196,0.06378964350100082,0.10363144917863001,0.0
-0.022076460370595498,0.06380680964074249,0.10368723913279046,0.0
-0.022106232894209966,0.06377247736125914,0.10366336746971219,0.0
-0.022111865533812707,0.06371615096523177,0.10361347837608795,0.0
-0.02204454207951332,0.06387010978103992,0.10367275520238342,0.0
-0.022044810300446784,0.06382236645488339,0.10368589802812314,0.0
-0.022059562451787286,0.06375155612844897,0.10368187471412119,0.0
-0.022052052265650303,0.06375960275645288,0.10364673777183744,0.0
-0.02206707263792427,0.06378857061726696,0.10354695958458895,0.0
-0.022050174719116057,0.0637786464427288,0.10358451051527387,0.0
-0.022038372998043655,0.0637196378373668,0.103697967970129,0.0
-0.02202415728857008,0.06377811000086188,0.10371406122613683,0.0
-0.022065195091390023,0.06369603439522199,0.10367490096985113,0.0
-0.02205178404471684,0.06376228496578752,0.10365585728357521,0.0
-0.02200001740455835,0.06379581258247048,0.10365102930677286,0.0
-0.021982314822949746,0.06376791760539026,0.10365746660917599,0.0
-0.021995189427756003,0.06374645993071316,0.10362474365529342,0.0
-0.021982851264816673,0.06381968424554875,0.10360221309688247,0.0
-0.02199492120682254,0.0637786464427288,0.10361508770168873,0.0
-0.021975877520546618,0.0637343899887073,0.10362393899249303,0.0
-0.02198848390441941,0.06379339859406931,0.10361589236448912,0.0
-0.022002163172026058,0.06374860569818087,0.10356385750339717,0.0
-0.022019329311767734,0.06381405160594601,0.10353891295658504,0.0
-0.022007259369761868,0.06382397578048417,0.10359202070141085,0.0
-0.021993311881221757,0.06376443073325523,0.10355634731726018,0.0
-0.022034617904975164,0.06370542212789322,0.1035761956663365,0.0
-0.021995189427756003,0.06377515957059378,0.10359255714327778,0.0
-0.02196809911347617,0.06378052398926305,0.10355742020099404,0.0
-0.02197909617174818,0.06385482118783249,0.10364030046943432,0.0
-0.02201101446283036,0.06376121208205367,0.10356627149179834,0.0
-0.021980169055482036,0.06385669873436674,0.10354213160778661,0.0
-0.021967562671609243,0.06381002829194406,0.10357217235233454,0.0
-0.021969171997210026,0.06379178926846853,0.10356519860806448,0.0
-0.021988752125352874,0.06377435490779339,0.10352550190991186,0.0
-0.022001090288292204,0.06382612154795188,0.10353542608445002,0.0
-0.022005650044161086,0.06375048324471512,0.10349814337469856,0.0
-0.02201611066056617,0.0637971536871378,0.10357351345700186,0.0
-0.021986069916018237,0.06383443639688925,0.10358558339900772,0.0
-0.022013428451231533,0.06372902557003803,0.10354132694498622,0.0
-0.022002163172026058,0.06380412743140786,0.10355286044512516,0.0
-0.02200457716042723,0.06385160253663093,0.10353247565418192,0.0
-0.022023084404836225,0.06384543345516126,0.10350270313056745,0.0
-0.022026839497904717,0.06378964350100082,0.10363654537636582,0.0
-0.02202710771883818,0.06375075146564858,0.10369850441199593,0.0
-0.022028717044438963,0.06375692054711825,0.10364834709743823,0.0
-0.022032740358440918,0.06373412176777384,0.10360489530621711,0.0
-0.02204668784698103,0.06369764372082277,0.1035643939452641,0.0
-0.022019597532701198,0.06376228496578752,0.10356037063126214,0.0
-0.022042932753912538,0.06377730533806149,0.10352603835177879,0.0
-0.022045883184180638,0.06370890900002825,0.10354213160778661,0.0
-0.02202630305603779,0.06376496717512216,0.10357726855007035,0.0
-0.02201476955589885,0.06381217405941177,0.10352898878204689,0.0
-0.02203005814910628,0.06376121208205367,0.10356841725926605,0.0
-0.022026839497904717,0.06377301380312607,0.10360328598061633,0.0
-0.02201986575363466,0.06378401086139808,0.10358987493394314,0.0
-0.02200377249762684,0.06384972499009668,0.1036153559226222,0.0
-0.022017719986166952,0.06381807491994797,0.10360623641088443,0.0
-0.022034081463108236,0.06379393503593624,0.10366926833024839,0.0
-0.022031935695640527,0.06380144522207322,0.10364164157410163,0.0
-0.022047760730714884,0.06377596423339417,0.10356627149179834,0.0
-0.02204078698644483,0.06377167269845875,0.10357217235233454,0.0
-0.02201476955589885,0.06383872793182467,0.10367114587678264,0.0
-0.0219892885672198,0.06390927003732562,0.10360060377128169,0.0
-0.022012087346564214,0.06386233137396947,0.1035791460966046,0.0
-0.022032472137507454,0.06382504866421802,0.10364593310903705,0.0
-0.0220402505445779,0.06379447147780316,0.10361481948075527,0.0
-0.022058757788986895,0.06375101968658205,0.10359872622474744,0.0
-0.022048565393515275,0.06378964350100082,0.10356224817779638,0.0
-0.02204078698644483,0.06383121774568769,0.10353810829378465,0.0
-0.022026571276971253,0.06381244228034523,0.1035665397127318,0.0
-0.02201476955589885,0.06381727025714758,0.10356895370113298,0.0
-0.02204373741671293,0.06380198166394015,0.10355876130566136,0.0
-0.022045614963247175,0.06373975440737657,0.10353435320071616,0.0
-0.02205473447498494,0.06370220347669166,0.10365612550450867,0.0
-0.022036763672442873,0.06374967858191473,0.10366444035344605,0.0
-0.022006186486028013,0.06380466387327478,0.10366417213251258,0.0
-0.022017988207100415,0.06377247736125914,0.10366148992317795,0.0
-0.02201396489309846,0.06373814508177579,0.10369018956305856,0.0
-0.02201611066056617,0.06375906631458596,0.1036448602253032,0.0
-0.022009941579096505,0.06377220914032568,0.10360489530621711,0.0
-0.02197104954374427,0.06383068130382076,0.10366470857437951,0.0
-0.022002699613892986,0.06370595856976015,0.10362098856222493,0.0
-0.021967830892542707,0.0637942032568697,0.10362957163209577,0.0
-0.02196514868320807,0.06379876301273858,0.10357565922446957,0.0
-0.0219804372764155,0.06372366115136875,0.10355822486379443,0.0
-0.021964075799474216,0.06381727025714758,0.10360006732941476,0.0
-0.021952274078401814,0.06385750339716713,0.10355017823579052,0.0
-0.02199787163709064,0.06379634902433741,0.1034528140369432,0.0
-0.021966758008808852,0.06380251810580707,0.10360945506208599,0.0
-0.021963539357607288,0.06380412743140786,0.10365290685330711,0.0
-0.021966221566941925,0.06385535762969942,0.10364083691130124,0.0
-0.021999749183624885,0.06384623811796165,0.1035643939452641,0.0
-0.02201691532336656,0.06375182434938244,0.10356385750339717,0.0
-0.022022279742035834,0.06379554436153702,0.103668463667448,0.0
-0.022046956067914493,0.06378481552419847,0.10360891862021906,0.0
-0.022032472137507454,0.0638186113618149,0.10361267371328756,0.0
-0.022057416684319577,0.06371159120936289,0.10361696524822298,0.0
-0.02205902600992036,0.06372071072110065,0.10362474365529342,0.0
-0.022017988207100415,0.06375638410525132,0.10362688942276113,0.0
-0.02202335262576969,0.06388968990918277,0.10360114021314862,0.0
-0.022015574218699242,0.06383094952475422,0.10355071467765745,0.0
-0.022038909439910583,0.06375692054711825,0.10351209086323868,0.0
-0.022053661591251085,0.06374243661671121,0.10351530951444024,0.0
-0.02203354502124131,0.06374002262831004,0.10349921625843242,0.0
-0.022020133974568125,0.06370300813949205,0.10359309358514471,0.0
-0.021985801695084774,0.0638725237694411,0.10357726855007035,0.0
-0.022001894951092595,0.06381405160594601,0.1035037760143013,0.0
-0.022045614963247175,0.063755043000584,0.1035665397127318,0.0
-0.022030862811906672,0.06378320619859769,0.1036293034111623,0.0
-0.02200672292789494,0.06375987097738635,0.10358638806180812,0.0
-0.0219892885672198,0.06380680964074249,0.1035879973874089,0.0
-0.022005650044161086,0.06373599931430808,0.10364056869036778,0.0
-0.021982046602016282,0.06377596423339417,0.10369716330732862,0.0
-0.02198258304388321,0.0637824015357973,0.10362876696929538,0.0
-0.021970513101877344,0.06379313037313585,0.10342760126919762,0.0
-0.022012087346564214,0.06370273991855858,0.10351423663070639,0.0
-0.021997603416157176,0.06378588840793233,0.10374276086601744,0.0
-0.021993043660288293,0.06377676889619456,0.10369313999332666,0.0
-0.02200001740455835,0.06375531122151747,0.10370011373759672,0.0
-0.021991702555620975,0.06373787686084233,0.10360516352715057,0.0
-0.022009941579096505,0.06376845404725719,0.10360596818995096,0.0
-0.0219774868461474,0.06374887391911434,0.10369072600492549,0.0
-0.022006186486028013,0.06376040741925328,0.103697967970129,0.0
-0.022012623788431142,0.06375343367498322,0.10366014881851063,0.0
-0.02202335262576969,0.06375370189591668,0.10366900010931493,0.0
-0.022052856928450694,0.06371212765122981,0.10366444035344605,0.0
-0.02204078698644483,0.06373573109337462,0.10359818978288052,0.0
-0.02203300857937438,0.06378857061726696,0.10363735003916622,0.0
-0.022054466254051476,0.06370461746509283,0.10366819544651454,0.0
-0.022062512882055386,0.06371749206989909,0.10363359494609772,0.0
-0.02206063533552114,0.06370434924415937,0.10359792156194705,0.0
-0.022052052265650303,0.0637247340351026,0.10365505262077482,0.0
-0.022049370056315666,0.06373975440737657,0.10361857457382376,0.0
-0.022017988207100415,0.06374753281444702,0.10362608475996074,0.0
-0.02203005814910628,0.06373841330270925,0.10362903519022884,0.0
-0.022039177660844046,0.06377515957059378,0.10362742586462806,0.0
-0.022040518765511365,0.06375423833778361,0.1035576884219275,0.0
-0.02207216883566008,0.06370917722096171,0.10349733871189817,0.0
-0.02205258870751723,0.06372607513976992,0.10340936224572209,0.0
-0.022031935695640527,0.06373680397710847,0.10363252206236387,0.0
-0.022048565393515275,0.0637343899887073,0.1037497346102875,0.0
-0.022053125149384158,0.06371856495363294,0.10368187471412119,0.0
-0.022066267975123878,0.06373760863990886,0.10366309924877873,0.0
-0.022056343800585722,0.06371454163963099,0.10370655103999984,0.0
-0.022030862811906672,0.0637765006752611,0.1037076239237337,0.0
-0.02202040219550159,0.06375450655871708,0.10365156574863979,0.0
-0.02202791238163857,0.06370622679069361,0.10369448109799398,0.0
-0.022050711160982985,0.06369496151148814,0.10378648087817202,0.0
-0.022065463312323487,0.06367806359267993,0.10376341387789415,0.0
-0.02206707263792427,0.06367806359267993,0.10373739644734817,0.0
-0.022065463312323487,0.063600011301042,0.10372452184254191,0.0
-0.022103282463941866,0.063677527150813,0.10370869680746755,0.0
-0.022055270916851867,0.06382531688515149,0.10372291251694113,0.0
-0.022054198033118012,0.06376496717512216,0.10371272012146951,0.0
-0.022077801475262816,0.06364051266199501,0.103716475214538,0.0
-0.022073241719393934,0.06364480419693043,0.10375670835455755,0.0
-0.02206707263792427,0.06369040175561926,0.10373042270307811,0.0
-0.022079679021797062,0.0636539237086682,0.10369126244679241,0.0
-0.02206358576578924,0.06369791194175624,0.10356546682899795,0.0
-0.022117498173415445,0.06363863511546076,0.10365693016730906,0.0
-0.022104623568609184,0.06368262334854881,0.10385755942553991,0.0
-0.022089603196335218,0.06366921230187562,0.10376073166855951,0.0
-0.022080483684597453,0.06357909006823183,0.10373095914494504,0.0
-0.022041055207378292,0.06369496151148814,0.10380632922724833,0.0
-0.02204668784698103,0.06373573109337462,0.10377977535483543,0.0
-0.02207726503339589,0.06371320053496367,0.10371727987733839,0.0
-0.02208906675446829,0.06360671682437859,0.10374249264508398,0.0
-0.02206412220765617,0.06370864077909479,0.10381920383205459,0.0
-0.02208906675446829,0.06365258260400088,0.10381062076218375,0.0
-0.02211132909194578,0.06361074013838054,0.10377575204083347,0.0
-0.022116693510615053,0.0636531190458678,0.10369984551666325,0.0
-0.022079142579930135,0.06370542212789322,0.10377360627336576,0.0
-0.02210435534767572,0.0636354164642592,0.10382000849485498,0.0
-0.02214190627836064,0.06358284516130032,0.10373310491241275,0.0
-0.022143247383027958,0.06359089178930423,0.1037076239237337,0.0
-0.022133591429423265,0.06364024444106155,0.10375965878482565,0.0
-0.022129031673554383,0.06363943977826116,0.10379855082017789,0.0
-0.022108110440744212,0.06363005204558993,0.10379855082017789,0.0
-0.022106232894209966,0.06365660591800283,0.1038036470179137,0.0
-0.02214780713889684,0.06361074013838054,0.10379560038990979,0.0
-0.02215209867383226,0.06360564394064473,0.10375080749402135,0.0
-0.02216094996463656,0.06356541080062518,0.10382081315765539,0.0
-0.02215129401103187,0.06364399953413004,0.103879017100217,0.0
-0.02214700247609645,0.06363112492932378,0.10378567621537163,0.0
-0.022132786766622874,0.0636029617313101,0.10369930907479633,0.0
-0.022145929592362595,0.06361744566171713,0.1037489299474871,0.0
-0.022130640999155165,0.06367323561587758,0.10379318640150861,0.0
-0.022138151185292148,0.06369254752308696,0.1036086503992856,0.0
-0.022138687627159075,0.06365580125520244,0.10353140277044806,0.0
-0.022130640999155165,0.06362441940598719,0.10386882470474539,0.0
-0.022149416464497623,0.06357667607983065,0.10380176947137945,0.0
-0.02216094996463656,0.06351525348606747,0.10371835276107225,0.0
-0.022136541859691366,0.06362817449905568,0.1038154487389861,0.0
-0.022163363953037734,0.06355736417262127,0.10382188604138924,0.0
-0.022173019906642426,0.06359491510330618,0.10378755376190588,0.0
-0.022178920767178627,0.06364855928999892,0.10374356552881783,0.0
-0.022188844941716784,0.06364239020852926,0.10370789214466716,0.0
-0.022179993650912482,0.0635992066382416,0.10376716897096264,0.0
-0.022210034395460414,0.0635933057777054,0.10380847499471604,0.0
-0.022212448383861588,0.06354475778874848,0.10374329730788437,0.0
-0.02219581868598684,0.06350881618366434,0.10378755376190588,0.0
-0.022205742860524996,0.06353376073047647,0.10384763525100175,0.0
-0.022199305558121867,0.06363595290612613,0.10381035254125029,0.0
-0.02219876911625494,0.06356862945182674,0.103716475214538,0.0
-0.02216899659264047,0.06350801152086395,0.10382456825072388,0.0
-0.022161218185570025,0.06351042550926513,0.10388357685608589,0.0
-0.022188844941716784,0.06350211066032775,0.10390771674009762,0.0
-0.022196355127853767,0.06352437299780524,0.10387767599554969,0.0
-0.02222076323279896,0.06349030893925535,0.10385004923940293,0.0
-0.022198500895321476,0.06351149839299898,0.10393051551944203,0.0
-0.0221695330345074,0.06355146331208507,0.10395814227558879,0.0
-0.022190186046384102,0.06349272292765652,0.10390127943769449,0.0
-0.022203328872123822,0.06352571410247256,0.10390020655396064,0.0
-0.022193136476652203,0.06353966159101267,0.10383073733219354,0.0
-0.022198500895321476,0.06349165004392267,0.10370976969120141,0.0
-0.022220226790932034,0.06351793569540211,0.10398791479920326,0.0
-0.02225268152388114,0.06350774329993049,0.1040238564042874,0.0
-0.02226662901242125,0.06349540513699116,0.10395063208945181,0.0
-0.022218617465331252,0.06357292098676216,0.10398335504333438,0.0
-0.022221031453732425,0.0636169092198502,0.10392515110077276,0.0
-0.02224758532614533,0.0635372476026115,0.103879017100217,0.0
-0.022235783605072928,0.06355924171915552,0.1040260021717551,0.0
-0.022213521267595442,0.06356514257969172,0.10400078940400952,0.0
-0.02221995856999857,0.06357050699836099,0.10392354177517198,0.0
-0.02221700813973047,0.06358096761476607,0.10396001982212304,0.0
-0.02223015096547019,0.06356943411462714,0.1039876465782698,0.0
-0.02220601108145846,0.06359276933583848,0.10397262620599583,0.0
-0.02223015096547019,0.06353241962580915,0.10392059134490388,0.0
-0.022222640779333207,0.06358043117289915,0.1039838914852013,0.0
-0.022225322988667844,0.06358686847530227,0.10399837541560834,0.0
-0.02222800519800248,0.06353188318394222,0.10397530841533047,0.0
-0.02223873403534103,0.06347448390418099,0.10391093539129918,0.0
-0.0222322967329379,0.06349540513699116,0.10389269636782365,0.0
-0.022212984825728515,0.06356943411462714,0.10388062642581779,0.0
-0.022204938197724605,0.06360859437091283,0.10387472556528159,0.0
-0.022215667035063152,0.06364560885973082,0.10390557097262991,0.0
-0.022211375500127733,0.06356755656809289,0.10390503453076298,0.0
-0.022204938197724605,0.06353376073047647,0.10390288876329527,0.0
-0.02221700813973047,0.06350640219526317,0.10392568754263969,0.0
-0.022215935255996615,0.06350425642779546,0.10393024729850857,0.0
-0.022201183104656113,0.06353858870727881,0.10387445734434812,0.0
-0.02220091488372265,0.06352705520713987,0.10379855082017789,0.0
-0.022210034395460414,0.06353966159101267,0.10383878396019745,0.0
-0.022201183104656113,0.06353241962580915,0.10381920383205459,0.0
-0.022210302616393878,0.06354878110275043,0.10387579844901544,0.0
-0.022225322988667844,0.06347689789258217,0.10378111645950275,0.0
-0.022233906058538682,0.06349486869512423,0.10381062076218375,0.0
-0.022242757349342984,0.06351954502100289,0.10388760017008784,0.0
-0.022247853547078793,0.06354770821901658,0.10385943697207416,0.0
-0.0222381975934741,0.06355521840515356,0.10382134959952231,0.0
-0.0222411480237422,0.06353563827701071,0.10377414271523269,0.0
-0.02224678066334494,0.06349004071832189,0.10382188604138924,0.0
-0.022265287907753933,0.06350747507899702,0.10385058568126986,0.0
-0.022266360791487787,0.06348789495085418,0.10390476630982952,0.0
-0.022235783605072928,0.0635305420792749,0.10391978668210348,0.0
-0.02223310139573829,0.06353805226541188,0.10389484213529136,0.0
-0.02227092054735667,0.0634825305321849,0.1039063756354303,0.0
-0.022269043000822424,0.06352249545127099,0.10394312190331483,0.0
-0.022263946803086614,0.06351927680006943,0.10391415404250075,0.0
-0.022237929372540637,0.06348279875311837,0.1039122764959665,0.0
-0.022223177221200135,0.06352490943967216,0.10389967011209371,0.0
-0.022268238338022033,0.0634441749386996,0.10387338446061427,0.0
-0.022270384105489743,0.06355843705635512,0.10399891185747527,0.0
-0.022264751465887005,0.06357479853329641,0.10400749492734611,0.0
-0.02229640153603572,0.06353295606767607,0.10395197319411913,0.0
-0.022300424850037675,0.06354690355621619,0.10389511035622483,0.0
-0.022304716384973094,0.06353697938167803,0.10392729686824047,0.0
-0.02227816251256019,0.06364239020852926,0.10396967577572773,0.0
-0.022305521047773485,0.0635490493236839,0.10394499944984907,0.0
-0.022306862152440803,0.06354448956781501,0.10402278352055354,0.0
-0.022290768896432982,0.06354073447474652,0.10395090031038527,0.0
-0.02225858238441734,0.06356138748662322,0.10400454449707801,0.0
-0.02223739293067371,0.06355602306795395,0.10404397297429717,0.0
-0.02225187686108075,0.06358204049849993,0.10404719162549873,0.0
-0.0222950604313684,0.06352410477687177,0.10398013639213281,0.0
-0.02228540447776371,0.06354770821901658,0.10400561738081186,0.0
-0.02226501968682047,0.06360376639411049,0.10404531407896449,0.0
-0.022271456989223597,0.06360993547558015,0.10400481271801147,0.0
-0.022315713443245105,0.06354395312594809,0.10396940755479427,0.0
-0.02232697872245058,0.06357372564956255,0.10394929098478449,0.0
-0.022279503617227508,0.0636147634523825,0.10406060267217192,0.0
-0.022253217965748067,0.06362576051065451,0.10408179212591555,0.0
-0.022283258710296,0.06361905498731792,0.10399435210160639,0.0
-0.02227896717536058,0.06363300247585803,0.10397530841533047,0.0
-0.022303911722172703,0.06360752148717898,0.10395277785691952,0.0
-0.022300424850037675,0.06361556811518289,0.10394043969398019,0.0
-0.022306862152440803,0.06357104344022792,0.10391764091463578,0.0
-0.022290768896432982,0.0635600463819559,0.10397423553159661,0.0
-0.022254559070415385,0.06351310771859976,0.10401178646228153,0.0
-0.022250803977346894,0.06349406403232384,0.10399408388067292,0.0
-0.022276284966025944,0.0636236147431868,0.1039809410549332,0.0
-0.02226662901242125,0.06360564394064473,0.10391871379836963,0.0
-0.022263946803086614,0.06355226797488546,0.10389645146089214,0.0
-0.02225348618668153,0.06358284516130032,0.10393319772877667,0.0
-0.02225643661694963,0.06353537005607725,0.1039307837403755,0.0
-0.02226206925655237,0.06350962084646473,0.10391790913556924,0.0
-0.0222803082800279,0.06349540513699116,0.1039004747748941,0.0
-0.02225563195414924,0.0635600463819559,0.10378567621537163,0.0
-0.022249999314546503,0.06359759731264082,0.10395680117092147,0.0
-0.02225348618668153,0.06355977816102244,0.10411558796353197,0.0
-0.022251608640147285,0.0635431484631477,0.10405711580003689,0.0
-0.022239270477207956,0.06359437866143926,0.1040445094161641,0.0
-0.022262337477485832,0.06351364416046669,0.10398120927586667,0.0
-0.02227306631482438,0.06354636711434926,0.10406462598617387,0.0
-0.022277089628826335,0.06353510183514378,0.10402653861362203,0.0
-0.022296937977902647,0.06351418060233362,0.10397396731066315,0.0
-0.022281649384695217,0.06353966159101267,0.10408259678871594,0.0
-0.022296669756969183,0.06349460047419077,0.1040386085556279,0.0
-0.02227601674509248,0.06359545154517311,0.10400695848547918,0.0
-0.02226797011708857,0.06358606381250188,0.10402841616015628,0.0
-0.02227172521015706,0.06358472270783457,0.10397986817119935,0.0
-0.022321614303781306,0.06354261202128077,0.10394017147304672,0.0
-0.022290768896432982,0.06353992981194613,0.10403699923002711,0.0
-0.022293719326701083,0.06356487435875825,0.10402278352055354,0.0
-0.022299888408170748,0.06356192392849015,0.10401151824134806,0.0
-0.02231464055951125,0.06352222723033753,0.1039927427760056,0.0
-0.022308471478041585,0.06359947485917507,0.10402224707868661,0.0
-0.02231169012924315,0.06352276367220445,0.1039846961480017,0.0
-0.022292378222033764,0.06357184810302831,0.10407347727697817,0.0
-0.022314908780444714,0.06357882184729836,0.10403646278816019,0.0
-0.022334488908587562,0.06352142256753714,0.10399488854347332,0.0
-0.022302838838438848,0.06355360907955278,0.10399971652027566,0.0
-0.02230310705937231,0.06352490943967216,0.10399676609000756,0.0
-0.022286745582431027,0.06352437299780524,0.10401232290414845,0.0
-0.022295328652301865,0.06351015728833166,0.10401178646228153,0.0
-0.02230954436177544,0.06354636711434926,0.10403512168349287,0.0
-0.022316518106045496,0.06357211632396177,0.1040466551836318,0.0
-0.022324564734049406,0.06352571410247256,0.1040289526020232,0.0
-0.02232858804805136,0.0635061339743297,0.10407910991658091,0.0
-0.022322955408448624,0.06350157421846082,0.10404906917203298,0.0
-0.022318663873513205,0.06351069373019859,0.10390369342609566,0.0
-0.02233502535045449,0.06357211632396177,0.10379238173870822,0.0
-0.022334488908587562,0.06354448956781501,0.10409332562605449,0.0
-0.022341730873791082,0.06347421568324753,0.10411719728913275,0.0
-0.022359969897266612,0.0634589270900401,0.10405818868377074,0.0
-0.02235916523446622,0.06347609322978177,0.10402841616015628,0.0
-0.022352996152996556,0.06352625054433948,0.1039240782170389,0.0
-0.022336902896988736,0.06351444882326708,0.10395680117092147,0.0
-0.022349777501794992,0.0634833351949853,0.10402653861362203,0.0
-0.022359969897266612,0.06347126525297943,0.10401849198561812,0.0
-0.022364529653135495,0.06351444882326708,0.10400132584587644,0.0
-0.022368016525270523,0.06351337593953323,0.1040053491598784,0.0
-0.022380622909143316,0.06348467629965261,0.10401902842748505,0.0
-0.022361847443800858,0.0635452942306154,0.10400561738081186,0.0
-0.02238384156034488,0.0634943322532573,0.10397262620599583,0.0
-0.022391083525548403,0.06349030893925535,0.1039787952874655,0.0
-0.022385450885945665,0.06349084538112228,0.10398603725266901,0.0
-0.022361579222867394,0.0635549501842201,0.10400052118307605,0.0
-0.022377136037008288,0.06354180735848038,0.10400373983427762,0.0
-0.02240610389782237,0.06345248978763697,0.10398871946200365,0.0
-0.02240905432809047,0.0635128394976663,0.10403994966029521,0.0
-0.02239886193261885,0.06356997055649406,0.10399864363654181,0.0
-0.022427025130632536,0.06348065298565066,0.10393936681024633,0.0
-0.02241120009555818,0.06353858870727881,0.10400964069481382,0.0
-0.02238866953714723,0.06350264710219468,0.10403834033469443,0.0
-0.022375258490474042,0.06346643727617708,0.10403324413695862,0.0
-0.022373112723006332,0.06347019236924557,0.10401232290414845,0.0
-0.022384378002211807,0.06345275800857043,0.10395680117092147,0.0
-0.022373112723006332,0.0634707288111125,0.10398523258986862,0.0
-0.02239671616515114,0.0635061339743297,0.10390235232142835,0.0
-0.022396984386084604,0.0635157899279344,0.10392139600770427,0.0
-0.02238947419994762,0.0635061339743297,0.10384334371606634,0.0
-0.022421660711963262,0.06349674624165848,0.10374356552881783,0.0
-0.022413077642092424,0.06348387163685222,0.1040681128583089,0.0
-0.022413345863025888,0.06350237888126121,0.1040946667307218,0.0
-0.022423538258497508,0.06348279875311837,0.1039897923457375,0.0
-0.022457602317047395,0.0634256676942906,0.10388411329795282,0.0
-0.02243238954930181,0.06346321862497552,0.10392085956583734,0.0
-0.02243829040983801,0.06343854229909686,0.10400615382267879,0.0
-0.022432925991168737,0.06353858870727881,0.10393775748464555,0.0
-0.02244767814250924,0.06345409911323775,0.10386936114661231,0.0
-0.022438558630771474,0.06345624488070546,0.10402358818335393,0.0
-0.02245062857277734,0.06343800585722993,0.10402358818335393,0.0
-0.022463234956650133,0.06341762106628669,0.10393105196130896,0.0
-0.022460552747315496,0.06341172020575049,0.10391361760063382,0.0
-0.022450896793710803,0.06348199409031798,0.10394473122891561,0.0
-0.02245787053798086,0.06345973175284049,0.10392568754263969,0.0
-0.02246377139851706,0.06347287457858021,0.10392139600770427,0.0
-0.02248630195692801,0.06345248978763697,0.10390878962383147,0.0
-0.022479596433591417,0.0634471253689677,0.103897524344626,0.0
-0.022469940479986725,0.06340152781027887,0.1039122764959665,0.0
-0.022450360351843876,0.06341627996161937,0.10394339012424829,0.0
-0.022497567236133484,0.06339267651947457,0.10394312190331483,0.0
-0.022469940479986725,0.06348816317178764,0.10392005490303695,0.0
-0.022440167956372256,0.06346214574124166,0.10388411329795282,0.0
-0.022452237898378122,0.06343130033389334,0.10393400239157706,0.0
-0.022472354468387898,0.06340394179868004,0.10389806078649293,0.0
-0.022464307840383987,0.06341923039188747,0.10392622398450661,0.0
-0.022500517666401584,0.06341413419415166,0.10391013072849879,0.0
-0.0224900570499965,0.06348869961365457,0.10398147749680013,0.0
-0.022489520608129573,0.06344068806656457,0.10395519184532069,0.0
-0.022494616805865383,0.06344229739216535,0.10391925024023656,0.0
-0.022500785887335048,0.06341520707788552,0.1039337341706436,0.0
-0.022498908340800802,0.0634736792413806,0.10394902276385103,0.0
-0.02249434858493192,0.06346804660177786,0.10394580411264946,0.0
-0.02250668674787125,0.06351310771859976,0.10395519184532069,0.0
-0.022494616805865383,0.06347206991577982,0.10391978668210348,0.0
-0.02248335152665991,0.0634433702758992,0.10398737835733633,0.0
-0.022487643061595328,0.06343693297349608,0.10396270203145767,0.0
-0.022511514724673595,0.06341520707788552,0.10390530275169645,0.0
-0.022510978282806668,0.06344685714803423,0.10388411329795282,0.0
-0.022509100736272422,0.06343371432229451,0.10389430569342444,0.0
-0.02251473337587516,0.06343586008976222,0.1038857226235536,0.0
-0.022453310782111977,0.06354851288181697,0.10392649220544008,0.0
-0.022511514724673595,0.06340769689174854,0.10391093539129918,0.0
-0.0224900570499965,0.0634492711364354,0.1039329295078432,0.0
-0.02250159055013544,0.06340367357774658,0.10392836975197432,0.0
-0.022481473980125663,0.06343666475256261,0.10391844557743617,0.0
-0.022486033735994546,0.06346241396217513,0.10388679550728745,0.0
-0.022493275701198065,0.06343639653162915,0.10388974593755555,0.0
-0.022479328212657954,0.0634825305321849,0.10395599650812108,0.0
-0.022504272759470076,0.06344953935736887,0.10391361760063382,0.0
-0.022496762573333093,0.06343800585722993,0.10394687699638332,0.0
-0.022478523549857563,0.06343049567109295,0.10392863797290779,0.0
-0.022488179503462255,0.06342218082215557,0.10387338446061427,0.0
-0.022495957910532702,0.06343773763629647,0.10386158273954187,0.0
-0.022502126992002366,0.06346911948551172,0.10384683058820136,0.0
-0.02246967225905326,0.0634618775203082,0.1038709704722131,0.0
-0.022485229073194155,0.06347555678791485,0.103849512797536,0.0
-0.022461357410115887,0.06347931188098334,0.1038701658094127,0.0
-0.022494616805865383,0.0634050146824139,0.10377897069203504,0.0
-0.022506954968804713,0.06346590083431015,0.10383288309966125,0.0
-0.022488179503462255,0.06346616905524362,0.10391871379836963,0.0
-0.02247476845678907,0.06347287457858021,0.10390557097262991,0.0
-0.02251553803867555,0.06347314279951367,0.10378165290136968,0.0
-0.022498908340800802,0.06342888634549217,0.10385299966967103,0.0
-0.022469404038119797,0.06342539947335714,0.10386560605354382,0.0
-0.022465380724117842,0.0634382740781634,0.10379908726204481,0.0
-0.022466453607851697,0.06343478720602837,0.10374517485441861,0.0
-0.022458138758914323,0.06348655384618686,0.10373820111014856,0.0
-0.022475304898656,0.06346295040404205,0.10378969952937359,0.0
-0.022488715945329182,0.06345248978763697,0.1037910406340409,0.0
-0.02251258760840745,0.06341252486855088,0.10373873755201549,0.0
-0.022467258270652088,0.06352115434660367,0.10377414271523269,0.0
-0.022469404038119797,0.06351820391633557,0.10374356552881783,0.0
-0.02245947986358164,0.06351927680006943,0.10371781631920532,0.0
-0.022466990049718624,0.06349701446259194,0.10373766466828163,0.0
-0.02249810367800041,0.06344229739216535,0.10351691884004102,0.0
-0.022490593491863428,0.06346241396217513,0.10380981609938336,0.0
-0.02248335152665991,0.06345758598537278,0.1039728944269293,0.0
-0.0224812057591922,0.06343210499669373,0.10388035820488432,0.0
-0.02246001630544857,0.06348440807871915,0.10388438151888628,0.0
-0.02246001630544857,0.06345141690390312,0.10385514543713874,0.0
-0.02249864011986734,0.06344980757830233,0.10378245756417007,0.0
-0.02249864011986734,0.06345919531097356,0.10376073166855951,0.0
-0.022455992991446613,0.06357184810302831,0.10383932040206438,0.0
-0.02246672182878516,0.06352249545127099,0.10383261487872779,0.0
-0.02250615030600432,0.06338838498453915,0.10380311057604677,0.0
-0.022508027852538567,0.06342244904308904,0.10376555964536185,0.0
-0.022478523549857563,0.06352490943967216,0.10381196186685107,0.0
-0.02246511250318438,0.06352303189313792,0.10386694715821114,0.0
-0.022476377782389853,0.06347341102044714,0.10390852140289801,0.0
-0.022501322329201975,0.0634648279505763,0.10388706372822092,0.0
-0.022515001596808623,0.06341467063601859,0.10383395598339511,0.0
-0.022497567236133484,0.06349835556725926,0.103782994006037,0.0
-0.022494080363998456,0.06341762106628669,0.10379720971551057,0.0
-0.022499713003601193,0.06345999997377395,0.10382108137858885,0.0
-0.022494080363998456,0.06347716611351563,0.10383341954152818,0.0
-0.02247986465452488,0.0634913818229892,0.10383449242526203,0.0
-0.022483083305726445,0.06350371998592853,0.10382483647165734,0.0
-0.02249864011986734,0.06348440807871915,0.10382054493672191,0.0
-0.022514465154941696,0.06343210499669373,0.1038057927853814,0.0
-0.022496226131466165,0.06340716044988161,0.10382751868099198,0.0
-0.02248496085226069,0.06348735850898725,0.1038642649488765,0.0
-0.02248925238719611,0.06345275800857043,0.10383958862299784,0.0
-0.022495421468665774,0.0634353236478953,0.10382751868099198,0.0
-0.022474500235855607,0.06349540513699116,0.10381974027392152,0.0
-0.022482278642926054,0.06349620979979155,0.103782994006037,0.0
-0.022506954968804713,0.06342244904308904,0.10385460899527181,0.0
-0.0225380685970865,0.06344497960149999,0.10382912800659276,0.0
-0.022520366015477897,0.06348092120658412,0.1037733380524323,0.0
-0.022489520608129573,0.06352785986994026,0.10387633489088237,0.0
-0.022512051166540523,0.06348279875311837,0.10390718029823069,0.0
-0.022513660492141305,0.06349084538112228,0.10392917441477471,0.0
-0.02251124650374013,0.06348950427645496,0.10388304041421896,0.0
-0.02248335152665991,0.06349942845099311,0.1039063756354303,0.0
-0.02247181802652097,0.06353617471887764,0.10395948338025611,0.0
-0.022517147364276333,0.06348360341591876,0.10388223575141857,0.0
-0.02250829607347203,0.06347797077631602,0.10387821243741661,0.0
-0.02250615030600432,0.06348011654378373,0.10396431135705846,0.0
-0.02248925238719611,0.06349889200912619,0.10390074299582756,0.0
-0.022488984166262646,0.06343988340376418,0.10373605534268085,0.0
-0.022478523549857563,0.06341467063601859,0.10384388015793326,0.0
-0.022528144422548343,0.06342244904308904,0.10404102254402907,0.0
-0.02252707153881449,0.0634256676942906,0.10390288876329527,0.0
-0.022518220248010187,0.0634323732176272,0.10387526200714851,0.0
-0.02250239521293583,0.06350157421846082,0.10388169930955164,0.0
-0.02251178294560706,0.06342808168269178,0.103868020041945,0.0
-0.02251687914334287,0.06344202917123189,0.10393748926371209,0.0
-0.022516074480542478,0.06346509617150976,0.10384870813473561,0.0
-0.022507223189738176,0.06347689789258217,0.10385487721620527,0.0
-0.02253163129468337,0.06346885126457825,0.10390235232142835,0.0
-0.022542896573888846,0.06344739358990116,0.10395170497318566,0.0
-0.02249729901520002,0.06349942845099311,0.10392729686824047,0.0
-0.022499176561734266,0.06348601740431993,0.10391469048436767,0.0
-0.022480132875458345,0.0635246412187387,0.10391764091463578,0.0
-0.022502663433869294,0.0634862856252534,0.10388223575141857,0.0
-0.02253887325988689,0.0633991138218777,0.10388304041421896,0.0
-0.022536995713352645,0.0633902625310734,0.10391442226343421,0.0
-0.022498908340800802,0.06347555678791485,0.10393856214744594,0.0
-0.022498371898933875,0.06346455972964284,0.10377843425016811,0.0
-0.022490593491863428,0.0634677783808444,0.1037320320286789,0.0
-0.022504272759470076,0.06346080463657434,0.10403458524162594,0.0
-0.022512855829340914,0.06340474646148044,0.10397772240373164,0.0
-0.02253163129468337,0.06341172020575049,0.10388760017008784,0.0
-0.022512319387473986,0.06343720119442954,0.10395385074065337,0.0
-0.022515001596808623,0.06344497960149999,0.10396726178732656,0.0
-0.022550674980959293,0.06342379014775636,0.103897524344626,0.0
-0.02254182369015499,0.06344551604336691,0.10388330863515242,0.0
-0.02252358466667946,0.06345329445043736,0.10386775182101153,0.0
-0.022564890690432868,0.06338275234493641,0.10383905218113092,0.0
-0.022522243562012143,0.06347287457858021,0.10386882470474539,0.0
-0.022553893632160857,0.06341574351975245,0.10383958862299784,0.0
-0.02252197534107868,0.06346214574124166,0.10382778690192544,0.0
-0.02250749141067164,0.06343907874096379,0.10387204335594695,0.0
-0.02250534564320393,0.0633961633916096,0.10387874887928354,0.0
-0.02247905999172449,0.0634256676942906,0.10391120361223265,0.0
-0.022502663433869294,0.06339750449627692,0.1038849179607532,0.0
-0.02252573043414717,0.06341011088014971,0.10386936114661231,0.0
-0.022518756689877115,0.06345785420630624,0.10384468482073365,0.0
-0.022486570177861473,0.06345490377603814,0.10387472556528159,0.0
-0.02250159055013544,0.06342298548495597,0.1038621191814088,0.0
-0.022507759631605104,0.06339374940320842,0.10368294759785504,0.0
-0.022492739259331138,0.06345946353190703,0.10381518051805264,0.0
-0.022509368957205886,0.06347770255538256,0.10407186795137739,0.0
-0.022525998655080634,0.06344390671776613,0.10394043969398019,0.0
-0.02249864011986734,0.06346670549711055,0.10395331429878645,0.0
-0.022517415585209796,0.06342244904308904,0.1039211277867708,0.0
-0.02247691422425678,0.06342727701989138,0.10397557663626393,0.0
-0.02247396379398868,0.06338302056586988,0.1039787952874655,0.0
-0.022501858771068903,0.06339723627534345,0.10395572828718762,0.0
-0.02247262268932136,0.0634433702758992,0.10395921515932265,0.0
-0.022471281584654043,0.06345141690390312,0.10393507527531091,0.0
-0.02246591716598477,0.06345651310163893,0.10393641637997823,0.0
-0.022497567236133484,0.06341654818255284,0.10387821243741661,0.0
-0.022485497294127618,0.063455976659772,0.10395411896158684,0.0
-0.022470476921853652,0.0634803847647172,0.103945535891716,0.0
-0.022483083305726445,0.0634707288111125,0.10390825318196455,0.0
-0.02248201042199259,0.0634382740781634,0.1039299790775751,0.0
-0.02250668674787125,0.06344605248523384,0.1039994482993422,0.0
-0.022520097794544433,0.06342539947335714,0.10396431135705846,0.0
-0.022504809201337003,0.0634256676942906,0.10390691207729723,0.0
-0.02249139815466382,0.06343720119442954,0.10393775748464555,0.0
-0.02248335152665991,0.06339428584507535,0.10400749492734611,0.0
-0.022509368957205886,0.06341520707788552,0.10401446867161616,0.0
-0.022489520608129573,0.0633961633916096,0.10396109270585689,0.0
-0.022471549805587507,0.06337497393786597,0.10396538424079231,0.0
-0.022469135817186334,0.0634412245084315,0.10397852706653203,0.0
-0.022470745142787116,0.06340930621734932,0.10401768732281773,0.0
-0.022490861712796892,0.06339777271721038,0.1039956932062737,0.0
-0.022486033735994546,0.06335217515852155,0.10397128510132851,0.0
-0.02249810367800041,0.06337229172853133,0.10393266128690974,0.0
-0.022483887968526836,0.06339938204281116,0.10395653294998801,0.0
-0.022487643061595328,0.06346965592737865,0.10385112212313678,0.0
-0.022520366015477897,0.06339589517067613,0.10367060943491571,0.0
-0.02251768380614326,0.06337631504253328,0.10397128510132851,0.0
-0.022524389329479852,0.06340769689174854,0.10410110403312493,0.0
-0.022525462213213707,0.06341225664761742,0.10395411896158684,0.0
-0.02251553803867555,0.06347448390418099,0.10401580977628348,0.0
-0.02252278000387907,0.06341574351975245,0.10399810719467488,0.0
-0.022552284306560075,0.06334064165838262,0.10392568754263969,0.0
-0.022512051166540523,0.06342298548495597,0.10394124435678058,0.0
-0.02250883251533896,0.06346536439244323,0.10394231724051443,0.0
-0.0225410190273546,0.06338409344960373,0.10393641637997823,0.0
-0.02253002196908259,0.06340233247307926,0.10392863797290779,0.0
-0.022536995713352645,0.06338704387987183,0.10389698790275907,0.0
-0.02251392871307477,0.0634433702758992,0.10395680117092147,0.0
-0.02250963717813935,0.06347931188098334,0.10394043969398019,0.0
-0.022512855829340914,0.06341520707788552,0.10393105196130896,0.0
-0.022520902457344824,0.06338489811240412,0.10395411896158684,0.0
-0.02253082663188298,0.06339750449627692,0.10395760583372186,0.0
-0.02251902491081058,0.06341923039188747,0.10396216558959075,0.0
-0.022502931654802757,0.06341654818255284,0.10397611307813086,0.0
-0.022502931654802757,0.06336934129826323,0.10396484779892538,0.0
-0.02250024944546812,0.06338328878680334,0.10390718029823069,0.0
-0.022498908340800802,0.06338409344960373,0.10393239306597628,0.0
-0.02251178294560706,0.06336424510052742,0.10391656803090192,0.0
-0.02250373631760315,0.06337685148440021,0.10392461465890583,0.0
-0.022497567236133484,0.06338811676360569,0.10389055060035594,0.0
-0.02250534564320393,0.06336665908892859,0.10390181587956142,0.0
-0.02252278000387907,0.06336344043772703,0.10383717463459667,0.0
-0.0224900570499965,0.06341654818255284,0.10382564113445773,0.0
-0.02251124650374013,0.06340179603121233,0.1038916234840898,0.0
-0.022488179503462255,0.0634884313927211,0.10388625906542052,0.0
-0.02253163129468337,0.06335137049572116,0.10383073733219354,0.0
-0.022510710061873204,0.06340045492654502,0.1038613145186084,0.0
-0.02251768380614326,0.06337953369373485,0.10386292384420918,0.0
-0.022493275701198065,0.06342539947335714,0.10389108704222287,0.0
-0.02249864011986734,0.06345383089230429,0.10384280727419941,0.0
-0.02247610956145639,0.06343586008976222,0.10387713955368276,0.0
-0.022489520608129573,0.06345865886910664,0.10388411329795282,0.0
-0.0224930074802646,0.06347582500884831,0.1038280551228589,0.0
-0.022504809201337003,0.06340179603121233,0.10382134959952231,0.0
-0.02250963717813935,0.06342325370588943,0.10380767033191565,0.0
-0.02251178294560706,0.06340447824054697,0.10380123302951252,0.0
-0.02252653509694756,0.06344524782243345,0.10385004923940293,0.0
-0.02252707153881449,0.06344176095029842,0.10378487155257124,0.0
-0.022518220248010187,0.06344444315963306,0.10381652162271995,0.0
-0.022517147364276333,0.06345061224110272,0.10384441659980019,0.0
-0.02252197534107868,0.06342834990362524,0.10382537291352427,0.0
-0.02253377706215108,0.06340581934521429,0.10378084823856928,0.0
-0.022488715945329182,0.0634795801019168,0.10378755376190588,0.0
-0.022463503177583596,0.06350908440459781,0.10384897635566907,0.0
-0.022485765515061082,0.06350827974179742,0.10382912800659276,0.0
-0.022505077422270467,0.0634862856252534,0.10372800871467694,0.0
-0.02249864011986734,0.06348682206712032,0.10361857457382376,0.0
-0.022484692631327227,0.063485480962453,0.10381169364591761,0.0
-0.022511514724673595,0.06347877543911641,0.10384522126260058,0.0
-0.02248925238719611,0.06347743433444909,0.10375965878482565,0.0
-0.022489520608129573,0.0634648279505763,0.10379425928524247,0.0
-0.022466990049718624,0.06345463555510468,0.10385085390220332,0.0
-0.022494080363998456,0.06343290965949412,0.10373149558681197,0.0
-0.02253377706215108,0.06338167946120256,0.10366900010931493,0.0
-0.02252707153881449,0.06341037910108317,0.10369233533052627,0.0
-0.02249729901520002,0.0634315685548268,0.10371620699360454,0.0
-0.022522243562012143,0.06343907874096379,0.10369340821426012,0.0
-0.022530290190016053,0.0633991138218777,0.10362528009716035,0.0
-0.022502126992002366,0.06340742867081507,0.10368509336532275,0.0
-0.022486838398794937,0.06343800585722993,0.10372774049374348,0.0
-0.022496226131466165,0.06342915456642563,0.10370816036560063,0.0
-0.02249139815466382,0.06341118376388356,0.10368375226065543,0.0
-0.022473427352121753,0.06346321862497552,0.10365397973704096,0.0
-0.022503468096669685,0.06347743433444909,0.103620452120358,0.0
-0.022497567236133484,0.06343559186882876,0.10359202070141085,0.0
-0.022469940479986725,0.06341225664761742,0.1035037760143013,0.0
-0.022486838398794937,0.06337819258906753,0.10371003791213487,0.0
-0.022494885026798847,0.06337899725186792,0.10381062076218375,0.0
-0.022512855829340914,0.06334976117012038,0.10366578145811337,0.0
-0.02247771888705717,0.06343586008976222,0.10377441093616616,0.0
-0.022502931654802757,0.06341359775228474,0.10370735570280024,0.0
-0.022483887968526836,0.0633806065774687,0.10371996208667303,0.0
-0.022459748084515105,0.06342539947335714,0.10372076674947342,0.0
-0.022508027852538567,0.06338516633333759,0.10363064451582962,0.0
-0.02251339227120784,0.06333608190251373,0.10372881337747733,0.0
-0.022481473980125663,0.06345141690390312,0.10377172872683152,0.0
-0.022475304898656,0.06343800585722993,0.10375939056389219,0.0
-0.022529753748149126,0.06341252486855088,0.10376421854069454,0.0
-0.02253297239935069,0.06341493885695206,0.10373927399388241,0.0
-0.022492739259331138,0.06340233247307926,0.10374061509854973,0.0
-0.02247181802652097,0.06342754524082485,0.10378165290136968,0.0
-0.022512319387473986,0.06347475212511446,0.10370333238879828,0.0
-0.022540482585487673,0.06340903799641585,0.10368294759785504,0.0
-0.022530290190016053,0.06343398254322798,0.10370118662133057,0.0
-0.022528144422548343,0.06343720119442954,0.1036566619463756,0.0
-0.02253377706215108,0.06342513125242367,0.10369099422585895,0.0
-0.022539141480820354,0.06348574918338647,0.10367865606291962,0.0
-0.022545578783223483,0.0634766296716487,0.10346971195575141,0.0
-0.02252653509694756,0.063485480962453,0.10364834709743823,0.0
-0.022520366015477897,0.06343988340376418,0.10380767033191565,0.0
-0.02255255252749354,0.06342110793842172,0.10366417213251258,0.0
-0.02253672749241918,0.06344095628749803,0.10367785140011923,0.0
-0.02251178294560706,0.06350559753246278,0.10369850441199593,0.0
-0.02251258760840745,0.06350264710219468,0.10363788648103314,0.0
-0.022506954968804713,0.06353590649794418,0.10365237041144018,0.0
-0.022518220248010187,0.06349701446259194,0.10366444035344605,0.0
-0.0225469198878908,0.06345061224110272,0.1036478106555713,0.0
-0.02254021436455421,0.06347475212511446,0.10366095348131102,0.0
-0.022544505899489628,0.06342995922922602,0.1036153559226222,0.0
-0.0225410190273546,0.06343049567109295,0.10362474365529342,0.0
-0.022518220248010187,0.06341923039188747,0.10371513410987068,0.0
-0.022522511782945606,0.06342244904308904,0.1036714140977161,0.0
-0.022525193992280243,0.06336719553079552,0.10365290685330711,0.0
-0.02254316479482231,0.06335512558878965,0.10361857457382376,0.0
-0.02250615030600432,0.06346616905524362,0.10362179322502532,0.0
-0.022520097794544433,0.06340045492654502,0.10365880771384331,0.0
-0.022535386387751863,0.06340689222894814,0.10366122170224448,0.0
-0.02257588774870488,0.06329879919276228,0.10361186905048717,0.0
-0.0225321677365503,0.0633814112402691,0.10369662686546169,0.0
-0.022531094852816444,0.06342191260122211,0.10372747227281001,0.0
-0.02252653509694756,0.06345275800857043,0.10363118095769655,0.0
-0.022560330934563985,0.0633325950303787,0.10357190413140108,0.0
-0.022530558410949517,0.06338811676360569,0.10368160649318772,0.0
-0.02254316479482231,0.06342379014775636,0.10361213727142063,0.0
-0.02256945044630175,0.06340984265921625,0.1035812918640723,0.0
-0.022563817806699013,0.0634020642521458,0.10357968253847152,0.0
-0.022559794492697058,0.06341440241508513,0.10359738512008013,0.0
-0.02253672749241918,0.06346295040404205,0.10363493605076504,0.0
-0.022531899515616835,0.06343505542696183,0.10355795664286097,0.0
-0.022571059771902532,0.0632971898671615,0.10344342630427197,0.0
-0.02255040676002583,0.06338033835653524,0.10360194487594901,0.0
-0.022534581724951472,0.06341520707788552,0.10360543174808404,0.0
-0.022544237678556164,0.06342808168269178,0.10355125111952437,0.0
-0.02255121142282622,0.06339079897294032,0.10351155442137175,0.0
-0.022550943201892756,0.0633755103797329,0.1034683708510841,0.0
-0.02251982957361097,0.06345651310163893,0.1035163823981741,0.0
-0.022495957910532702,0.06348145764845105,0.10350726288643633,0.0
-0.022496762573333093,0.06346858304364479,0.1034536186997436,0.0
-0.022506418526937785,0.06341708462441976,0.10343457501346767,0.0
-0.02246752649158555,0.06350291532312814,0.10344959538574164,0.0
-0.022508027852538567,0.06342137615935518,0.10342304151332873,0.0
-0.022507759631605104,0.06340474646148044,0.10346622508361639,0.0
-0.022542896573888846,0.06331650177437088,0.10341982286212717,0.0
-0.022528949085348735,0.06345356267137083,0.1034351114553346,0.0
-0.02253377706215108,0.0635423438003473,0.10338200371050879,0.0
-0.022490861712796892,0.06346295040404205,0.103465420420816,0.0
-0.022474232014922144,0.06342379014775636,0.10343859832746963,0.0
-0.022469135817186334,0.06342995922922602,0.10344235342053812,0.0
-0.0224930074802646,0.06341145198481703,0.10343698900186885,0.0
-0.022495421468665774,0.06340125958934541,0.10346568864174946,0.0
-0.02248925238719611,0.06341252486855088,0.10343859832746963,0.0
-0.022497567236133484,0.06336665908892859,0.10340077917585125,0.0
-0.02247691422425678,0.06341198842668395,0.1034772221418884,0.0
-0.02249434858493192,0.0634433702758992,0.10336242358236594,0.0
-0.022504004538536612,0.06344524782243345,0.103177351138276,0.0
-0.022520097794544433,0.063437469415363,0.10345549624627784,0.0
-0.022536459271485718,0.06340367357774658,0.10358692450367504,0.0
-0.02255040676002583,0.06343505542696183,0.10343457501346767,0.0
-0.022533240620284153,0.06347475212511446,0.10344074409493734,0.0
-0.02255496651589471,0.06342781346175831,0.10345308225787667,0.0
-0.022512051166540523,0.06353107852114183,0.10346193354868097,0.0
-0.022521170678278288,0.06346697371804401,0.10338334481517611,0.0
-0.022534045283084544,0.06338167946120256,0.10344932716480817,0.0
-0.022521707120145215,0.06345141690390312,0.10348178189775728,0.0
-0.022520366015477897,0.06343130033389334,0.10341794531559292,0.0
-0.022558721608963203,0.06337309639133172,0.10341874997839332,0.0
-0.022534045283084544,0.06339509050787574,0.10338683168731114,0.0
-0.02255335719029393,0.063437469415363,0.10336617867543443,0.0
-0.02252412110854639,0.06343854229909686,0.10341016690852248,0.0
-0.02253377706215108,0.06344310205496574,0.10338683168731114,0.0
-0.0225469198878908,0.06339348118227496,0.1033605460358317,0.0
-0.022545578783223483,0.06338972608920647,0.1033664468963679,0.0
-0.022505613864137394,0.06343478720602837,0.10338066260584147,0.0
-0.02250829607347203,0.06345865886910664,0.10335410873342857,0.0
-0.02253297239935069,0.06340313713587965,0.10329617301180041,0.0
-0.02252653509694756,0.0634471253689677,0.10333855191928767,0.0
-0.02251982957361097,0.06341467063601859,0.10336000959396477,0.0
-0.022475036677722535,0.06352544588153909,0.103476417479088,0.0
-0.022480669317325272,0.0634884313927211,0.10341284911785711,0.0
-0.022499713003601193,0.06347314279951367,0.10332165400047946,0.0
-0.022519561352677506,0.06339723627534345,0.10341606776905868,0.0
-0.022518220248010187,0.06339079897294032,0.10343725722280231,0.0
-0.022506418526937785,0.06341493885695206,0.10340158383865164,0.0
-0.022504809201337003,0.06338811676360569,0.10334096590768885,0.0
-0.02249864011986734,0.0634197668337544,0.10336832444290214,0.0
-0.022485497294127618,0.06345463555510468,0.10334713498915851,0.0
-0.022521170678278288,0.06338409344960373,0.10338227193144225,0.0
-0.022531899515616835,0.06332320729770748,0.10339621941998237,0.0
-0.022483619747593372,0.06335297982132194,0.10332809130288259,0.0
-0.02251768380614326,0.0633384958909149,0.10330314675607047,0.0
-0.02251687914334287,0.06331247846036893,0.10334123412862231,0.0
-0.022434267095836055,0.06350747507899702,0.10338146726864186,0.0
-0.022437753967971083,0.06346804660177786,0.10332862774474952,0.0
-0.022457065875180468,0.06342727701989138,0.10329161325593153,0.0
-0.02249810367800041,0.06339857738001077,0.10329161325593153,0.0
-0.022480132875458345,0.06341332953135127,0.10332809130288259,0.0
-0.022465380724117842,0.06344015162469764,0.10332540909354795,0.0
-0.022479328212657954,0.06340179603121233,0.10333560148901957,0.0
-0.022459211642648177,0.06340716044988161,0.10344342630427197,0.0
-0.022460552747315496,0.06340555112428083,0.10339273254784734,0.0
-0.022527607980681416,0.06338570277520451,0.10335786382649706,0.0
-0.02250239521293583,0.06338167946120256,0.10332621375634835,0.0
-0.022487374840661864,0.06340313713587965,0.10333801547742075,0.0
-0.022494885026798847,0.06339160363574071,0.10332165400047946,0.0
-0.02248281508479298,0.06349835556725926,0.10327069202312136,0.0
-0.022471281584654043,0.0634382740781634,0.10324842968564388,0.0
-0.022476646003323317,0.06340179603121233,0.10334069768675538,0.0
-0.022456797654247004,0.06344471138056652,0.10330529252353818,0.0
-0.022475841340522926,0.06347314279951367,0.1032519165577789,0.0
-0.022491934596530747,0.06345490377603814,0.10323099532496874,0.0
-0.02248335152665991,0.0634412245084315,0.10331628958181019,0.0
-0.022471281584654043,0.0634500757992358,0.1032948319071331,0.0
-0.022500785887335048,0.06340769689174854,0.10321168341775935,0.0
-0.02248335152665991,0.06340823333361546,0.10328356662792762,0.0
-0.022478791770791026,0.06341252486855088,0.10327203312778868,0.0
-0.02246806293345248,0.06341306131041781,0.10331709424461058,0.0
-0.022492471038397674,0.06344095628749803,0.10326184073231706,0.0
-0.02244767814250924,0.06347555678791485,0.10330019632580237,0.0
-0.022483619747593372,0.06342110793842172,0.10329214969779846,0.0
-0.022508027852538567,0.0634197668337544,0.10331924001207829,0.0
-0.02245787053798086,0.06352356833500485,0.10333586970995304,0.0
-0.022467258270652088,0.06347931188098334,0.10328168908139337,0.0
-0.022476646003323317,0.06347287457858021,0.10332219044234639,0.0
-0.0224782553289241,0.06350962084646473,0.10339461009438158,0.0
-0.022469404038119797,0.06351686281166825,0.10335732738463013,0.0
-0.02252278000387907,0.06335137049572116,0.10326720515098634,0.0
-0.02246001630544857,0.06353697938167803,0.1033516947450274,0.0
-0.022476646003323317,0.06349004071832189,0.10336403290796672,0.0
-0.022496762573333093,0.06347287457858021,0.10333962480302153,0.0
-0.022481473980125663,0.06349004071832189,0.10328624883726226,0.0
-0.022478791770791026,0.06348199409031798,0.10329563656993349,0.0
-0.02246457606131745,0.06348145764845105,0.10326988736032097,0.0
-0.022491934596530747,0.0634707288111125,0.1032674733719198,0.0
-0.022442045502906502,0.06353832048634535,0.10337690751277298,0.0
-0.022461089189182423,0.06354046625381306,0.10336591045450097,0.0
-0.022484692631327227,0.06345034402016926,0.10331360737247555,0.0
-0.02246243029384974,0.06351847213726904,0.10329134503499807,0.0
-0.022469404038119797,0.06348816317178764,0.10307971871849522,0.0
-0.022494616805865383,0.06346563261337669,0.10322992244123488,0.0
-0.022491129933730356,0.06352303189313792,0.10345791023467901,0.0
-0.022480669317325272,0.06348226231125144,0.10337851683837376,0.0
-0.022446605258775384,0.06346080463657434,0.10344074409493734,0.0
-0.022446068816908457,0.0634862856252534,0.10346193354868097,0.0
-0.022439899735438792,0.06352571410247256,0.10341767709465946,0.0
-0.02244258194477343,0.06351847213726904,0.10339621941998237,0.0
-0.02247262268932136,0.06346053641564088,0.10340533893172013,0.0
-0.02245787053798086,0.06344390671776613,0.10343484323440114,0.0
-0.022451969677444658,0.06343666475256261,0.1034085575829217,0.0
-0.02244043617730572,0.06349620979979155,0.10336483757076712,0.0
-0.02243104844463449,0.06350425642779546,0.1033516947450274,0.0
-0.022445264154108066,0.06349567335792462,0.1033546451752955,0.0
-0.022432925991168737,0.06352678698620641,0.10339326898971427,0.0
-0.0224390950726384,0.06356594724249211,0.10338870923384538,0.0
-0.022444995933174602,0.06353268784674261,0.10341874997839332,0.0
-0.022458943421714714,0.06343854229909686,0.10336912910570253,0.0
-0.02247691422425678,0.06349486869512423,0.10332648197728181,0.0
-0.022493275701198065,0.0635393933700792,0.10332514087261449,0.0
-0.022502663433869294,0.06353295606767607,0.1033428434542231,0.0
-0.022483619747593372,0.0635452942306154,0.10341714065279253,0.0
-0.022482278642926054,0.06356111926568976,0.10339192788504695,0.0
-0.022500517666401584,0.06353456539327686,0.10332379976794717,0.0
-0.022509368957205886,0.06348816317178764,0.10327659288365756,0.0
-0.022528412643481807,0.06345248978763697,0.1033390883611546,0.0
-0.02250615030600432,0.06351149839299898,0.10333238283781801,0.0
-0.022512051166540523,0.0634795801019168,0.10328410306979455,0.0
-0.0224871066197284,0.06351686281166825,0.1032977823374012,0.0
-0.022479328212657954,0.0635010377765939,0.10332111755861254,0.0
-0.022465380724117842,0.06348521274151954,0.10338441769890996,0.0
-0.022473427352121753,0.06352490943967216,0.10336456934983365,0.0
-0.022483887968526836,0.06352088612567021,0.1033184353492779,0.0
-0.022474500235855607,0.06351713103260172,0.10332192222141293,0.0
-0.022467794712519015,0.0634884313927211,0.10333828369835421,0.0
-0.022490861712796892,0.06345436733417122,0.10332889596568298,0.0
-0.02250615030600432,0.06344256561309881,0.10334445277982388,0.0
-0.022492471038397674,0.06343425076416144,0.1033302370703503,0.0
-0.02249944478266773,0.06345865886910664,0.1032430652669746,0.0
-0.022502126992002366,0.06345436733417122,0.10325728097644818,0.0
-0.022469940479986725,0.06348306697405183,0.10335196296596086,0.0
-0.022470745142787116,0.06345919531097356,0.1033243362098141,0.0
-0.022468599375319406,0.0634648279505763,0.10334364811702348,0.0
-0.022470745142787116,0.0634648279505763,0.10332487265168103,0.0
-0.02246162563104935,0.06347341102044714,0.1033117298259413,0.0
-0.022437217526104156,0.06350962084646473,0.10329054037219768,0.0
-0.0224841561894603,0.06340876977548239,0.10323635974363801,0.0
-0.02249220281746421,0.06345973175284049,0.10326559582538555,0.0
-0.022494616805865383,0.06341654818255284,0.10324708858097656,0.0
-0.022461357410115887,0.06346670549711055,0.10330475608167125,0.0
-0.022454651886779295,0.06350640219526317,0.10331065694220745,0.0
-0.02248630195692801,0.06344444315963306,0.1032674733719198,0.0
-0.02247396379398868,0.06342808168269178,0.10326505938351863,0.0
-0.0224812057591922,0.06338302056586988,0.10323367753430338,0.0
-0.022471281584654043,0.06347153347391289,0.1032519165577789,0.0
-0.022442045502906502,0.06353456539327686,0.1033095840584736,0.0
-0.022458138758914323,0.06346590083431015,0.10329268613966539,0.0
-0.022462162072916278,0.0635010377765939,0.10329724589553427,0.0
-0.022489520608129573,0.06345383089230429,0.10326586404631902,0.0
-0.022492739259331138,0.06341306131041781,0.10327793398832488,0.0
-0.022463503177583596,0.06349594157885809,0.1031322900214541,0.0
-0.02247262268932136,0.06345999997377395,0.10329751411646773,0.0
-0.022494616805865383,0.06344229739216535,0.10342974703666533,0.0
-0.022478791770791026,0.06347180169484636,0.10337717573370644,0.0
-0.022463234956650133,0.06348869961365457,0.10337315241970449,0.0
-0.022458406979847786,0.06348467629965261,0.10337637107090605,0.0
-0.02246162563104935,0.06345329445043736,0.10337261597783756,0.0
-0.022466453607851697,0.06347287457858021,0.10337744395463991,0.0
-0.02245143323557773,0.06351042550926513,0.1033959511990489,0.0
-0.02245143323557773,0.06347046059017904,0.10339165966411348,0.0
-0.02244982390997695,0.06350425642779546,0.10337261597783756,0.0
-0.022496226131466165,0.06346670549711055,0.10329349080246578,0.0
-0.022517952027076724,0.06345329445043736,0.10317869224294332,0.0
-0.02249810367800041,0.06350237888126121,0.1033146802562094,0.0
-0.022499981224534657,0.06350264710219468,0.10335518161716242,0.0
-0.022496226131466165,0.06353858870727881,0.10330207387233661,0.0
-0.022496226131466165,0.06347421568324753,0.1032674733719198,0.0
-0.022494885026798847,0.06346616905524362,0.10330717007007242,0.0
-0.022495957910532702,0.06347850721818295,0.1032704238021879,0.0
-0.02250239521293583,0.06352517766060563,0.10324869790657734,0.0
-0.02249434858493192,0.06352571410247256,0.1032674733719198,0.0
-0.022505613864137394,0.06350479286966239,0.10329965988393544,0.0
-0.022490593491863428,0.06350479286966239,0.10325406232524661,0.0
-0.02251258760840745,0.06346053641564088,0.1032224122550979,0.0
-0.022486838398794937,0.06348279875311837,0.10326398649978477,0.0
-0.022473695573055216,0.06347689789258217,0.10325808563924857,0.0
-0.022455188328646222,0.0635393933700792,0.10327417889525639,0.0
-0.022476646003323317,0.06357935828916529,0.10319076218494919,0.0
-0.022497567236133484,0.06348896783458803,0.10327498355805678,0.0
-0.022481742201059127,0.06349004071832189,0.10327444711618985,0.0
-0.022477450666123708,0.06348065298565066,0.10323233642963606,0.0
-0.02248791128252879,0.06351015728833166,0.10333640615181997,0.0
-0.022478523549857563,0.06352705520713987,0.10330529252353818,0.0
-0.022499981224534657,0.06346536439244323,0.10326720515098634,0.0
-0.02249220281746421,0.06344444315963306,0.103273374232456,0.0
-0.022482278642926054,0.06350935262553127,0.10330824295380628,0.0
-0.022488179503462255,0.06355575484702049,0.10332219044234639,0.0
-0.02249729901520002,0.06348950427645496,0.10329670945366734,0.0
-0.02249864011986734,0.0634707288111125,0.10328329840699416,0.0
-0.022474500235855607,0.06351337593953323,0.1032881263837965,0.0
-0.022476377782389853,0.06352330011407138,0.10320846476655779,0.0
-0.022480132875458345,0.0635570959516878,0.10306496656715472,0.0
-0.02246967225905326,0.0635570959516878,0.10327525177899025,0.0
-0.02247986465452488,0.06356541080062518,0.10338227193144225,0.0
-0.0224812057591922,0.06350586575339624,0.10332165400047946,0.0
-0.02251339227120784,0.06349969667192658,0.10329536834900002,0.0
-0.02250024944546812,0.06350264710219468,0.10337368886157142,0.0
-0.022545042341356555,0.0634441749386996,0.10337717573370644,0.0
-0.022536459271485718,0.063485480962453,0.10337798039650684,0.0
-0.022527607980681416,0.06351471704420054,0.10335732738463013,0.0
-0.02249354392213153,0.06352839631180719,0.10331977645394522,0.0
-0.022505882085070858,0.0634825305321849,0.10334606210542466,0.0
-0.022496226131466165,0.06354395312594809,0.10332862774474952,0.0
-0.02251768380614326,0.0634795801019168,0.10327391067432293,0.0
-0.022490593491863428,0.06356621546342557,0.10334016124488846,0.0
-0.0224812057591922,0.06351042550926513,0.1033243362098141,0.0
-0.022525462213213707,0.06352142256753714,0.10324440637164192,0.0
-0.02251982957361097,0.06359169645210462,0.10326318183698438,0.0
-0.02248201042199259,0.06359491510330618,0.1033723477569041,0.0
-0.02247101336372058,0.06356782478902635,0.10335598627996281,0.0
-0.022486570177861473,0.06355253619581892,0.10334150234955577,0.0
-0.022524657550413316,0.06349755090445887,0.1032792750929922,0.0
-0.02245867520078125,0.06354502600968194,0.10340131561771818,0.0
-0.022478791770791026,0.06351471704420054,0.10339353721064773,0.0
-0.022485497294127618,0.0635069386371301,0.10339112322224656,0.0
-0.02250105410826851,0.06345839064817317,0.10336966554756946,0.0
-0.02247610956145639,0.06350157421846082,0.10338522236171035,0.0
-0.022476377782389853,0.06345329445043736,0.10331682602367712,0.0
-0.022465380724117842,0.06349057716018881,0.10335813204743052,0.0
-0.02242890267716678,0.06353134674207529,0.10335947315209784,0.0
-0.022451969677444658,0.0634833351949853,0.10327203312778868,0.0
-0.022470745142787116,0.06342754524082485,0.1033095840584736,0.0
-0.022464844282250915,0.06345999997377395,0.10334230701235617,0.0
-0.022458406979847786,0.06344310205496574,0.1033154849190098,0.0
-0.02245947986358164,0.06345678132257239,0.10326988736032097,0.0
-0.022469404038119797,0.06343022745015948,0.10329670945366734,0.0
-0.022447141700642312,0.0634648279505763,0.10334659854729158,0.0
-0.022450896793710803,0.06341654818255284,0.10329724589553427,0.0
-0.022453310782111977,0.06350640219526317,0.10323770084830533,0.0
-0.022445800595974993,0.06347528856698138,0.10329241791873192,0.0
-0.02244928746811002,0.06344390671776613,0.10332245866327985,0.0
-0.022407445002489687,0.06346670549711055,0.1033117298259413,0.0
-0.02242085604916287,0.06345731776443932,0.1033036831979374,0.0
-0.022418442060761698,0.06348118942751758,0.10321463384802745,0.0
-0.022414686967693206,0.0634833351949853,0.10309768952103729,0.0
-0.022429975560900636,0.06346590083431015,0.10315106548679656,0.0
-0.022440972619172647,0.06348279875311837,0.10337127487317024,0.0
-0.02244258194477343,0.06352544588153909,0.10325298944151276,0.0
-0.022421124270096335,0.0635128394976663,0.10325674453458125,0.0
-0.022421660711963262,0.06347314279951367,0.10324950256937773,0.0
-0.022414418746759743,0.06348950427645496,0.10328088441859298,0.0
-0.022442313723839966,0.06343210499669373,0.10325298944151276,0.0
-0.02244043617730572,0.06346670549711055,0.10329831877926812,0.0
-0.02245438366584583,0.06347206991577982,0.10325406232524661,0.0
-0.02244848280530963,0.06350479286966239,0.10324038305763997,0.0
-0.022404494572221587,0.0635423438003473,0.10326076784858321,0.0
-0.022412541200225497,0.06352276367220445,0.10326532760445209,0.0
-0.022403689909421196,0.06351176661393244,0.10322509446443254,0.0
-0.02241066365369125,0.06345463555510468,0.10319022574308226,0.0
-0.022417637397961307,0.06343907874096379,0.10328088441859298,0.0
-0.0224390950726384,0.06347206991577982,0.10323367753430338,0.0
-0.022429975560900636,0.06342379014775636,0.10305048263674768,0.0
-0.022377136037008288,0.06357399387049602,0.1031537476961312,0.0
-0.022441509061039575,0.063485480962453,0.10337207953597063,0.0
-0.0224243429212979,0.06350586575339624,0.1032889310465969,0.0
-0.022411736537425106,0.06351847213726904,0.10321865716202941,0.0
-0.02242085604916287,0.06348682206712032,0.10324467459257539,0.0
-0.022416832735160916,0.06347126525297943,0.10323582330177108,0.0
-0.022442313723839966,0.0634345189850949,0.10320524611535623,0.0
-0.022435608200503374,0.06348896783458803,0.10324467459257539,0.0
-0.022398325490751922,0.06356997055649406,0.10322026648763019,0.0
-0.022413882304892815,0.06353188318394222,0.10319773592921924,0.0
-0.02240181236288695,0.06352625054433948,0.1032165113945617,0.0
-0.022424879363164826,0.06350640219526317,0.10316930451027209,0.0
-0.022408517886223542,0.06348789495085418,0.1032135609642936,0.0
-0.022407445002489687,0.06349755090445887,0.10324655213910963,0.0
-0.02243829040983801,0.06349755090445887,0.10319666304548539,0.0
-0.022407981444356614,0.06355146331208507,0.10316957273120556,0.0
-0.022401544141953486,0.06348413985778568,0.10321436562709399,0.0
-0.0224213924910298,0.063485480962453,0.10318647065001377,0.0
-0.022386791990612984,0.0635549501842201,0.10318807997561455,0.0
-0.022403421688487732,0.06350801152086395,0.1031499926030627,0.0
-0.02237659959514136,0.06349701446259194,0.10320336856882198,0.0
-0.02239081530461494,0.0635157899279344,0.10319451727801768,0.0
-0.022411736537425106,0.06352517766060563,0.10317279138240712,0.0
-0.02240181236288695,0.06352625054433948,0.1031116370095774,0.0
-0.022411736537425106,0.06349486869512423,0.1031625989869355,0.0
-0.022357824129798903,0.06359276933583848,0.10323045888310181,0.0
-0.022363993211268567,0.06358981890557037,0.10318137445227796,0.0
-0.022407445002489687,0.06347931188098334,0.10314275063785919,0.0
-0.022386791990612984,0.06356326503315747,0.10313121713772025,0.0
-0.02236721186247013,0.06362978382465646,0.1031440917425265,0.0
-0.022363993211268567,0.06356782478902635,0.10320524611535623,0.0
-0.022366675420603204,0.06356862945182674,0.10318807997561455,0.0
-0.022381964013810634,0.0635541455214197,0.1031057361490412,0.0
-0.022391351746481866,0.06351552170700094,0.10311431921891204,0.0
-0.022385450885945665,0.06352839631180719,0.10313068069585332,0.0
-0.02237874536260907,0.06353188318394222,0.10309661663730343,0.0
-0.022384109781278343,0.06353241962580915,0.10291824971655009,0.0
-0.022400739479153095,0.06350854796273088,0.10304619110181226,0.0
-0.022356751246065048,0.06362388296412026,0.10326666870911941,0.0
-0.02237794069980868,0.06356621546342557,0.10318244733601181,0.0
-0.022384914444078738,0.0635511950911516,0.1031566981263993,0.0
-0.02237284450207287,0.06354395312594809,0.10312880314931908,0.0
-0.022379818246342924,0.06355924171915552,0.10314167775412533,0.0
-0.022394302176749967,0.06348762672992071,0.10313443578892181,0.0
-0.022402348804753877,0.06347797077631602,0.10305048263674768,0.0
-0.022387060211546447,0.06350640219526317,0.10308749712556567,0.0
-0.02236265210660125,0.06362871094092261,0.10317413248707444,0.0
-0.022392692851149185,0.06353134674207529,0.10307945049756176,0.0
-0.022411736537425106,0.06346241396217513,0.1031596485566674,0.0
-0.022402885246620804,0.06349460047419077,0.10320283212695505,0.0
-0.022413345863025888,0.06348816317178764,0.1031803015685441,0.0
-0.022402080583820413,0.06353161496300876,0.10314757861466153,0.0
-0.02239296107208265,0.06352222723033753,0.10311646498637975,0.0
-0.022399398374485777,0.06346965592737865,0.10306630767182204,0.0
-0.022370162292738232,0.06354153913754691,0.10310224927690617,0.0
-0.022376063153274433,0.06353912514914574,0.10311190523051086,0.0
-0.022381964013810634,0.06351766747446864,0.10310171283503924,0.0
-0.02240610389782237,0.0635431484631477,0.10310627259090813,0.0
-0.022420319607295944,0.06354448956781501,0.10310627259090813,0.0
-0.02241066365369125,0.06354583067248233,0.103099835288505,0.0
-0.022392156409282257,0.06358177227756646,0.1030931297651684,0.0
-0.02241871028169516,0.06350130599752736,0.10308374203249718,0.0
-0.022406372118755832,0.06355548662608702,0.10308025516036215,0.0
-0.022435608200503374,0.06362629695252144,0.10311807431198053,0.0
-0.02242890267716678,0.06355924171915552,0.1031116370095774,0.0
-0.022443654828507284,0.06353671116074457,0.10310305393970656,0.0
-0.022429170898100245,0.06351176661393244,0.1031271938237183,0.0
-0.022412541200225497,0.06355924171915552,0.1030459228808788,0.0
-0.02240905432809047,0.06356567902155864,0.10309044755583377,0.0
-0.02237659959514136,0.06364641352253121,0.10317681469640907,0.0
-0.022427561572499463,0.06356246037035708,0.10308052338129561,0.0
-0.022438022188904547,0.06353751582354496,0.10306925810209014,0.0
-0.0224302437818341,0.06351069373019859,0.1030547741716831,0.0
-0.022413077642092424,0.06354448956781501,0.10304377711341109,0.0
-0.022403153467554268,0.06352034968380328,0.10306872166022321,0.0
-0.022394033955816503,0.06349620979979155,0.10311056412584355,0.0
-0.022367480083403595,0.06351954502100289,0.10307891405569483,0.0
-0.022393497513949576,0.06353241962580915,0.1030842784743641,0.0
-0.022377672478875215,0.06353537005607725,0.10315321125426427,0.0
-0.022373917385806723,0.06353429717234339,0.1031352404517222,0.0
-0.022397252607018067,0.06350211066032775,0.10307113564862438,0.0
-0.022396447944217676,0.06351015728833166,0.10312102474224863,0.0
-0.022415491630493597,0.06349111360205574,0.1030791822766283,0.0
-0.02237874536260907,0.06358418626596764,0.10308776534649913,0.0
-0.02237874536260907,0.06354985398648429,0.10305852926475159,0.0
-0.02236989407180477,0.06357506675422987,0.10301293170606277,0.0
-0.022361847443800858,0.06348869961365457,0.1030673805555559,0.0
-0.022379281804475997,0.06353912514914574,0.10311110056771047,0.0
-0.02239296107208265,0.06352651876527295,0.1030097130548612,0.0
-0.022353800815796947,0.06355468196328663,0.10286165509958925,0.0
-0.02236426143220203,0.06355870527728859,0.10303733981100796,0.0
-0.02239886193261885,0.06353832048634535,0.10313363112612142,0.0
-0.022388937758080693,0.06350345176499507,0.10318566598721338,0.0
-0.022394838618616894,0.06346670549711055,0.10314757861466153,0.0
-0.022334488908587562,0.06358525914970149,0.10314060487039148,0.0
-0.022341462652857618,0.06356889767276021,0.10309903062570461,0.0
-0.022372576281139405,0.06355065864928468,0.1030880335674326,0.0
-0.022368016525270523,0.0635305420792749,0.10308964289303338,0.0
-0.02236855296713745,0.06353778404447842,0.1031271938237183,0.0
-0.02239886193261885,0.06345919531097356,0.10310895480024276,0.0
-0.022383305118477952,0.0635600463819559,0.10307086742769092,0.0
-0.0223401215481903,0.0635726527658287,0.10314945616119578,0.0
-0.022334488908587562,0.06358043117289915,0.10315991677760086,0.0
-0.02233368424578717,0.06349594157885809,0.10317869224294332,0.0
-0.02239966659541924,0.06346080463657434,0.10318566598721338,0.0
-0.022375258490474042,0.06353215140487568,0.10317010917307248,0.0
-0.022363188548468176,0.0635010377765939,0.10322294869696483,0.0
-0.022346558850593428,0.06352517766060563,0.10326130429045013,0.0
-0.02234092621099069,0.06352785986994026,0.10315187014959695,0.0
-0.022352996152996556,0.06347716611351563,0.10314677395186114,0.0
-0.0223371711179222,0.06350237888126121,0.10321409740616053,0.0
-0.022338512222589518,0.06350479286966239,0.10321275630149321,0.0
-0.022314908780444714,0.06352544588153909,0.10315884389386701,0.0
-0.022329660931785216,0.06351847213726904,0.10315321125426427,0.0
-0.02234441308312572,0.06350747507899702,0.1031840566616126,0.0
-0.022324296513115943,0.06352598232340602,0.10317198671960673,0.0
-0.022339853327256836,0.06350479286966239,0.10316340364973589,0.0
-0.022361579222867394,0.06352437299780524,0.10313389934705489,0.0
-0.022349777501794992,0.06355012220741775,0.10312585271905098,0.0
-0.022326710501517116,0.06356997055649406,0.10321034231309203,0.0
-0.02235541014139773,0.06348467629965261,0.10315750278919969,0.0
-0.02235326437393002,0.06355468196328663,0.10311539210264589,0.0
-0.02237445382767365,0.06355521840515356,0.1029979113337888,0.0
-0.022353800815796947,0.063562996812224,0.10309232510236802,0.0
-0.02232483295498287,0.06356058282382283,0.10335598627996281,0.0
-0.02233931688538991,0.06351686281166825,0.10321517028989438,0.0
-0.02233502535045449,0.06354770821901658,0.10315401591706466,0.0
-0.0223401215481903,0.06355763239355473,0.1031470421727946,0.0
-0.022333416024853708,0.06353295606767607,0.10319424905708421,0.0
-0.02232778338525097,0.06356782478902635,0.10321490206896092,0.0
-0.02234387664125879,0.06353832048634535,0.10315991677760086,0.0
-0.02233797578072259,0.06353000563740797,0.10315535702173198,0.0
-0.02233368424578717,0.06350774329993049,0.10315347947519773,0.0
-0.022323223629382088,0.06348440807871915,0.10314140953319187,0.0
-0.02232107786191438,0.06346992414831211,0.10312129296318209,0.0
-0.022311958350176613,0.06350667041619663,0.10312558449811751,0.0
-0.022279503617227508,0.06356326503315747,0.10341553132719175,0.0
-0.02231329945484393,0.06344390671776613,0.10335196296596086,0.0
-0.022315177001378177,0.06345946353190703,0.10304994619488075,0.0
-0.022328856268984825,0.0634803847647172,0.10304538643901187,0.0
-0.022322955408448624,0.06347126525297943,0.10314033664945801,0.0
-0.022311421908309686,0.06355977816102244,0.10311297811424472,0.0
-0.022329660931785216,0.0635364429398111,0.10287962590213132,0.0
-0.02230015662910421,0.06356997055649406,0.10301293170606277,0.0
-0.022306862152440803,0.0635579006144882,0.1032430652669746,0.0
-0.022332343141119853,0.06351096195113205,0.10310385860250695,0.0
-0.02230954436177544,0.06355012220741775,0.10311914719571438,0.0
-0.02230873969897505,0.0635372476026115,0.10312773026558522,0.0
-0.02232054142004745,0.06350532931152932,0.10312236584691595,0.0
-0.022325369396849797,0.06352437299780524,0.10311029590491008,0.0
-0.022292378222033764,0.06353751582354496,0.10309339798610187,0.0
-0.022300961291904602,0.06351793569540211,0.1030341211598064,0.0
-0.02225697305881656,0.0636029617313101,0.10306228435782008,0.0
-0.022289427791765664,0.06350237888126121,0.10305155552048154,0.0
-0.02228540447776371,0.06350640219526317,0.1030695263230236,0.0
-0.022278698954427117,0.06348977249738842,0.10303492582260679,0.0
-0.022276284966025944,0.0634980873463258,0.1030821327068964,0.0
-0.022281649384695217,0.06350881618366434,0.10305691993915081,0.0
-0.022276284966025944,0.06347475212511446,0.10306496656715472,0.0
-0.022304179943106166,0.06338758032173876,0.10305128729954807,0.0
-0.02229559687323533,0.06347931188098334,0.1030547741716831,0.0
-0.022281649384695217,0.06348735850898725,0.10303090250860483,0.0
-0.02229425576856801,0.0635305420792749,0.1030311707295383,0.0
-0.022296669756969183,0.06354985398648429,0.10300354397339154,0.0
-0.022302838838438848,0.0634921864857896,0.10295445954256768,0.0
-0.02232188252471477,0.06342700879895792,0.10303197539233869,0.0
-0.022334488908587562,0.0633991138218777,0.10300649440365964,0.0
-0.022326710501517116,0.06345973175284049,0.10302982962487098,0.0
-0.022311153687376222,0.06353751582354496,0.10301239526419584,0.0
-0.02229345110576762,0.06359008712650384,0.10301078593859506,0.0
-0.022321614303781306,0.06352008146286982,0.10299174225231914,0.0
-0.022315177001378177,0.0635549501842201,0.1029684070311078,0.0
-0.022314372338577786,0.0635061339743297,0.10287318859972819,0.0
-0.022318663873513205,0.06352276367220445,0.1028517309250511,0.0
-0.022338512222589518,0.0635157899279344,0.10306577122995511,0.0
-0.022326710501517116,0.06351149839299898,0.10303251183420561,0.0
-0.02230310705937231,0.0635452942306154,0.10303197539233869,0.0
-0.022319200315380133,0.06352490943967216,0.10299227869418606,0.0
-0.022332611362053317,0.06349486869512423,0.10297779476377902,0.0
-0.022321346082847842,0.06355521840515356,0.10304753220647958,0.0
-0.022314372338577786,0.06355441374235317,0.10302661097366941,0.0
-0.022318127431646278,0.06354583067248233,0.1030164185781978,0.0
-0.022312763012977004,0.06353483361421032,0.10299898421752265,0.0
-0.022324564734049406,0.06351713103260172,0.1029890600429845,0.0
-0.022318127431646278,0.06357292098676216,0.1029890600429845,0.0
-0.02230873969897505,0.06357479853329641,0.10304672754367919,0.0
-0.022314908780444714,0.06356406969595786,0.10304163134594338,0.0
-0.022308471478041585,0.06352034968380328,0.1030762318463602,0.0
-0.022296937977902647,0.06358660025436881,0.10312960781211947,0.0
-0.02231893209444667,0.06356058282382283,0.10304324067154416,0.0
-0.022293182884834156,0.06353778404447842,0.10308079160222908,0.0
-0.022300961291904602,0.06350908440459781,0.10307703650916059,0.0
-0.02228245404749561,0.0635452942306154,0.10306308902062047,0.0
-0.022256704837883095,0.06359276933583848,0.10303841269474182,0.0
-0.02224973109361304,0.06352893275367412,0.10306523478808818,0.0
-0.022236856488806783,0.06349620979979155,0.10302875674113712,0.0
-0.022260191710018123,0.06347421568324753,0.1029313925422898,0.0
-0.022249999314546503,0.06352625054433948,0.10299388801978684,0.0
-0.02225053575641343,0.06352437299780524,0.10305289662514885,0.0
-0.022240611581875274,0.06350827974179742,0.10304404533434455,0.0
-0.02225053575641343,0.0635031835440616,0.10306523478808818,0.0
-0.022255095512282313,0.0635128394976663,0.10298503672898254,0.0
-0.022250803977346894,0.06352088612567021,0.1028605822158554,0.0
-0.022272529872957452,0.06349406403232384,0.10306764877648936,0.0
-0.0222803082800279,0.06348118942751758,0.10310627259090813,0.0
-0.022266092570554324,0.06348709028805379,0.10305799282288466,0.0
-0.022267701896155106,0.06348977249738842,0.10302017367126629,0.0
-0.02224973109361304,0.06352195900940406,0.10297082101950897,0.0
-0.02224678066334494,0.06351444882326708,0.1029439989261626,0.0
-0.022224786546800917,0.06351686281166825,0.10300220286872422,0.0
-0.02221486237226276,0.06354743999808311,0.10300247108965768,0.0
-0.02224758532614533,0.06352571410247256,0.10297859942657941,0.0
-0.022247853547078793,0.06353027385834144,0.10293622051909215,0.0
-0.02220466997679114,0.0635128394976663,0.10305021441581422,0.0
-0.022210302616393878,0.06347555678791485,0.10303009784580444,0.0
-0.022251608640147285,0.06347341102044714,0.10297779476377902,0.0
-0.022223981884000526,0.06355924171915552,0.10302929318300405,0.0
-0.022237929372540637,0.06351364416046669,0.1029735032288436,0.0
-0.02223444250040561,0.06352115434660367,0.10299388801978684,0.0
-0.02224678066334494,0.06348467629965261,0.10300703084552656,0.0
-0.022245171337744157,0.06349969667192658,0.10302661097366941,0.0
-0.02225643661694963,0.0635010377765939,0.10302553808993556,0.0
-0.022274139198558234,0.06350720685806356,0.10302982962487098,0.0
-0.022272798093890916,0.06351900857913596,0.10298771893831718,0.0
-0.022260459930951586,0.06349486869512423,0.10281364355249925,0.0
-0.022261264593751977,0.06350774329993049,0.10298557317084947,0.0
-0.02226662901242125,0.06350827974179742,0.10315642990546584,0.0
-0.022278430733493653,0.06348011654378373,0.10301239526419584,0.0
-0.0222803082800279,0.06347475212511446,0.103033316497006,0.0
-0.02226797011708857,0.06349486869512423,0.10306094325315276,0.0
-0.02227011588455628,0.06348816317178764,0.1031419459750588,0.0
-0.022288623128965273,0.0634441749386996,0.10304511821807841,0.0
-0.022258314163483877,0.06349406403232384,0.10305504239261656,0.0
-0.02224678066334494,0.06352303189313792,0.10305852926475159,0.0
-0.022259118826284268,0.06342352192682289,0.10301775968286511,0.0
-0.02224168446560913,0.06346536439244323,0.10300434863619193,0.0
-0.02224838998894572,0.06351981324193635,0.10303170717140522,0.0
-0.022235247163206,0.06358257694036686,0.10308937467209991,0.0
-0.022227468756135554,0.06354153913754691,0.10310707725370852,0.0
-0.02223444250040561,0.06350237888126121,0.10306898988115668,0.0
-0.022232028512004436,0.06348387163685222,0.10302580631086902,0.0
-0.02223363783760522,0.06348601740431993,0.10300542151992578,0.0
-0.022225591209601308,0.06347046059017904,0.10301400458979662,0.0
-0.022229078081736336,0.06347689789258217,0.10303278005513908,0.0
-0.022265556128687396,0.06346080463657434,0.10305396950888271,0.0
-0.022231223849204045,0.06351820391633557,0.10306523478808818,0.0
-0.022223713663067062,0.06347260635764675,0.10311780609104707,0.0
-0.022233906058538682,0.06346509617150976,0.10308642424183181,0.0
-0.02223953869814142,0.0634138659732182,0.10312156118411556,0.0
-0.022226664093335163,0.06346053641564088,0.10314382352159304,0.0
-0.022249194651746112,0.06344390671776613,0.10313068069585332,0.0
-0.022246512442411475,0.06346429150870937,0.10311297811424472,0.0
-0.022239806919074883,0.06342191260122211,0.10312504805625058,0.0
-0.022255363733215777,0.06338597099613798,0.10312987603305293,0.0
-0.022211643721061197,0.0634825305321849,0.10319773592921924,0.0
-0.0222411480237422,0.06342110793842172,0.1030960801954365,0.0
-0.022235515384139464,0.06344229739216535,0.10305799282288466,0.0
-0.022220495011865498,0.06346026819470742,0.10317466892894137,0.0
-0.022244366674943766,0.0633902625310734,0.10316152610320165,0.0
-0.022241952686542592,0.063407965112682,0.1031499926030627,0.0
-0.022267433675221642,0.06341440241508513,0.10311619676544628,0.0
-0.022258314163483877,0.06344229739216535,0.10316715874280438,0.0
-0.022245976000544548,0.0634404198456311,0.10317654647547561,0.0
-0.022231223849204045,0.06341574351975245,0.10318673887094723,0.0
-0.022212448383861588,0.06348762672992071,0.10320819654562433,0.0
-0.02221620347693008,0.0634766296716487,0.1031950537198846,0.0
-0.022209497953593487,0.06348601740431993,0.10323394575523684,0.0
-0.022216471697863543,0.06342459481055675,0.10318352021974567,0.0
-0.022204938197724605,0.06341306131041781,0.10317601003360868,0.0
-0.022178920767178627,0.06342781346175831,0.10321543851082784,0.0
-0.02217972542997902,0.06349540513699116,0.10315750278919969,0.0
-0.022239806919074883,0.06333608190251373,0.10314945616119578,0.0
-0.02221781280253086,0.0634050146824139,0.10318003334761064,0.0
-0.02219152715105142,0.06342432658962328,0.10300703084552656,0.0
-0.02220896151172656,0.06342379014775636,0.10321758427829555,0.0
-0.022220495011865498,0.06343210499669373,0.10335035364036008,0.0
-0.02221620347693008,0.06342191260122211,0.10328437129072801,0.0
-0.022204938197724605,0.06343854229909686,0.10326291361605092,0.0
-0.02220762040705924,0.06343800585722993,0.1032497707903112,0.0
-0.02219447758131952,0.06342539947335714,0.10322402158069868,0.0
-0.02219233181385181,0.06340581934521429,0.10314516462626036,0.0
-0.022212180162928124,0.06337229172853133,0.10313148535865371,0.0
-0.022217276360663934,0.06334681073985228,0.10324226060417421,0.0
-0.022210034395460414,0.0634404198456311,0.1032379690692388,0.0
-0.022212180162928124,0.06343049567109295,0.10315240659146388,0.0
-0.02221781280253086,0.06339267651947457,0.10316581763813706,0.0
-0.022239002256274492,0.06340555112428083,0.10319237151054997,0.0
-0.022215130593196224,0.06346831482271133,0.10322724023190025,0.0
-0.02228406337309639,0.06330523649516541,0.10322321691789829,0.0
-0.022247048884278402,0.0633924082985411,0.10323367753430338,0.0
-0.02224973109361304,0.06336639086799513,0.10318888463841494,0.0
-0.022262605698419296,0.06335432092598926,0.1032312635459022,0.0
-0.02227011588455628,0.06336907307732977,0.10315991677760086,0.0
-0.022257509500683486,0.06337282817039826,0.10314543284719382,0.0
-0.022271456989223597,0.06335673491439044,0.10315106548679656,0.0
