-0.05291167532344762,0.06798596000504017,-0.0347979110238446,0.0
-0.053008234859494546,0.06789664243419677,-0.03494301854884845,0.0
-0.05316165723343578,0.06795162772555682,-0.034903858292562755,0.0
-0.05308065451152975,0.06800071215638068,-0.0348008614541127,0.0
-0.053040421371510195,0.06796342944662923,-0.034679357371253654,0.0
-0.053030228976038575,0.06789556955046291,-0.03476384696529471,0.0
-0.05304095781337712,0.06773490521131816,-0.03409168530603472,0.0
-0.0529827538708155,0.06757772774430844,-0.03421882202849651,0.0
-0.053116864337547344,0.0675455412322928,-0.034128431573919246,0.0
-0.05312759317488589,0.06758443326764503,-0.03402302074706802,0.0
-0.052965051289206894,0.06754366368575855,-0.03410402346897405,0.0
-0.05306187904618729,0.06739480106768621,-0.03432771972748276,0.0
-0.05324319639720874,0.06768018814089156,-0.03491968332763711,0.0
-0.053293353711766446,0.0676260075123319,-0.035172347446959906,0.0
-0.05326653161842008,0.06754098147642391,-0.0352085572729775,0.0
-0.05317640938477628,0.06761742444246106,-0.035079006562114545,0.0
-0.05333439151458639,0.0675817510583104,-0.034881327734151805,0.0
-0.053398228096750745,0.06756753534883682,-0.03482473311719097,0.0
-0.05384106085789929,0.06710592712234582,-0.034146670597394777,0.0
-0.05393654751021236,0.06720543708866085,-0.0341598134231345,0.0
-0.053821748950689904,0.06720114555372543,-0.03436848930936924,0.0
-0.0537235800890422,0.06736502854407174,-0.03439826183298371,0.0
-0.05404383588359783,0.06746909826625565,-0.03425717762198181,0.0
-0.054036057476527385,0.0675788006280423,-0.03428051284319315,0.0
-0.05350846690040432,0.067252375752017,-0.03476518806996203,0.0
-0.053550577586958116,0.06727356520576062,-0.03483277974519488,0.0
-0.053537434761218396,0.06730038729910699,-0.03498164236326722,0.0
-0.05346421044638281,0.06725881305442012,-0.0350291174684903,0.0
-0.05348218124892488,0.06725210753108353,-0.03504413784076427,0.0
-0.05365974350687784,0.0671016355874104,-0.035070959934110635,0.0
-0.053462332899848565,0.06734249798566079,-0.034697596394729184,0.0
-0.05332554022378209,0.06736288277660403,-0.034554098195326115,0.0
-0.05327886978135941,0.06752006024361375,-0.03448811584569405,0.0
-0.0532523159089465,0.06751630515054526,-0.03451440149717349,0.0
-0.05338964502687991,0.06743315666117151,-0.03448757940382712,0.0
-0.05361226840165477,0.06730333772937509,-0.03443608098460209,0.0
-0.053517049970275156,0.0672604223800209,-0.03455007488132416,0.0
-0.05351436776094052,0.06740016548635548,-0.034529958311314383,0.0
-0.0534982745049327,0.0676319083728681,-0.03425851872664913,0.0
-0.053716069902905214,0.06745863764985056,-0.034477655229288966,0.0
-0.053575522133770245,0.06737736670701107,-0.034667019208314324,0.0
-0.053414321352758566,0.0673202356481833,-0.034665678103647006,0.0
-0.05342558663196404,0.0674672207197214,-0.034949724072185044,0.0
-0.05348513167919298,0.06742564647503453,-0.03491217314150013,0.0
-0.0535647932964317,0.0674886783943985,-0.03462571318456092,0.0
-0.053592956494445385,0.06750208944107168,-0.03457501942813628,0.0
-0.053543872063621524,0.06733150092738878,-0.03482312379159019,0.0
-0.05350256603986812,0.06731460300858057,-0.034703497255265385,0.0
-0.05361655993659019,0.06726739612429096,-0.03436822108843578,0.0
-0.05379680440387778,0.0673564454742009,-0.03442240171699544,0.0
-0.053826845148425714,0.06734088866006001,-0.034411136437789966,0.0
-0.053583568761774156,0.06725666728695241,-0.0344744365780874,0.0
-0.05341593067835935,0.06723869648441035,-0.03437197618150427,0.0
-0.05337435643367248,0.06726498213588979,-0.034457806880212646,0.0
-0.053633726076331864,0.06715286578570197,-0.03454846555572338,0.0
-0.053554869121893535,0.06723547783320878,-0.03477028426769784,0.0
-0.05339152257341415,0.0670447727495161,-0.03465333994070768,0.0
-0.053474671062787894,0.06701848709803666,-0.034556243962793824,0.0
-0.0536667172511479,0.06697637641148287,-0.03457501942813628,0.0
-0.05346179645798164,0.06695813738800734,-0.03465414460350807,0.0
-0.05355916065682896,0.0668918868174418,-0.03444198184513829,0.0
-0.053317225374844714,0.0668535312239565,-0.034524325671711646,0.0
-0.053341365258856445,0.0669133444921189,-0.03449106627596215,0.0
-0.05351785463307555,0.06687096558463164,-0.034302506959737175,0.0
-0.05355460090096007,0.0668535312239565,-0.03428560904092896,0.0
-0.053444898539173426,0.06684682570061991,-0.034349177402159856,0.0
-0.05358115477337298,0.06693238817839482,-0.03434971384402678,0.0
-0.05355460090096007,0.06687659822423438,-0.034405235577253765,0.0
-0.05334914366592689,0.06684146128195063,-0.034498844683032596,0.0
-0.05342236798076248,0.06684146128195063,-0.03453532272998366,0.0
-0.05354199451708728,0.06689403258490952,-0.034374658390838905,0.0
-0.0534650151091832,0.06689322792210912,-0.03437009863497002,0.0
-0.05330596009563924,0.06686426006129505,-0.034258786947582595,0.0
-0.05340949337595622,0.06696779334161203,-0.03420541098182332,0.0
-0.053540385191486496,0.06684441171221873,-0.034338985006688236,0.0
-0.05354011697055303,0.06680739722340075,-0.03441703729832617,0.0
-0.05340064208515192,0.06677199206018354,-0.03436902575123617,0.0
-0.05344811719037499,0.06694606744600147,-0.034256641180114886,0.0
-0.05349425119093074,0.0667175432106904,-0.03438511900724399,0.0
-0.053533679668149904,0.06690637074784885,-0.03434139899508941,0.0
-0.05344221632983879,0.06691066228278426,-0.03447953277582321,0.0
-0.05362782521579566,0.06671593388508962,-0.03448838406662751,0.0
-0.053592956494445385,0.06673202714109744,-0.03444332294980561,0.0
-0.05336282293353354,0.06676582297871388,-0.03435588292549645,0.0
-0.05348218124892488,0.06678164801378823,-0.03456992323040047,0.0
-0.053490764318795715,0.06683153710741248,-0.03447363191528701,0.0
-0.05344677608570767,0.06687445245676667,-0.034428570798465105,0.0
-0.053443289213572644,0.06677252850205047,-0.03448892050849444,0.0
-0.053402519631686164,0.06676448187404656,-0.03460398728895036,0.0
-0.05348110836519102,0.06687257491023242,-0.03438511900724399,0.0
-0.053585714529241865,0.06672317585029314,-0.034613106800688125,0.0
-0.053487813888527615,0.06678272089752209,-0.03454444224172142,0.0
-0.05341727178302667,0.06686640582876276,-0.03436822108843578,0.0
-0.05338025729420868,0.06680122814193108,-0.03443554454273516,0.0
-0.05335343520086231,0.06679720482792913,-0.03461713011469008,0.0
-0.053429609945965996,0.06678513488592326,-0.03477913555850214,0.0
-0.053678250751286835,0.0667848666649898,-0.03441784196112656,0.0
-0.053441143446104934,0.06670788725708571,-0.0345675092419993,0.0
-0.053382939503543315,0.06673658689696632,-0.03442320637979583,0.0
-0.053600198459648904,0.06684012017728332,-0.034300092971336,0.0
-0.05353609365655108,0.06671191057108766,-0.034478996333956284,0.0
-0.05345455449277812,0.06676796874618159,-0.03457287366066857,0.0
-0.053495055853731134,0.06675643524604265,-0.03432986549495047,0.0
-0.05352804702854717,0.06663761337251822,-0.034561340160529634,0.0
-0.05350256603986812,0.06664619644238906,-0.03449911290396606,0.0
-0.05350551647013622,0.06669179400107789,-0.03437009863497002,0.0
-0.05354199451708728,0.06672424873402699,-0.03440711312378801,0.0
-0.05340707938755505,0.06671888431535772,-0.03447497301995433,0.0
-0.053425854852897504,0.06668482025680783,-0.03442159705419505,0.0
-0.05339152257341415,0.06660033066276677,-0.03452754432291321,0.0
-0.05350739401667046,0.06661535103504074,-0.034451906019676445,0.0
-0.05341512601555896,0.06662393410491158,-0.03436473421630075,0.0
-0.0532198611759974,0.06656412083674917,-0.03441006355405611,0.0
-0.0532885257349641,0.06663734515158476,-0.034558389730261534,0.0
-0.05342263620169594,0.06678325733938902,-0.034274075540790025,0.0
-0.0533601407241989,0.06673551401323247,-0.034372512623371196,0.0
-0.053356653852063875,0.06683556042141443,-0.03450152689236723,0.0
-0.053462332899848565,0.06676099500191153,-0.03449616247369796,0.0
-0.05359322471537885,0.06679800949072952,-0.03437948636764125,0.0
-0.05343121927156678,0.06674892505990566,-0.03440121226325181,0.0
-0.053369796677803595,0.06660542686050258,-0.03433254770428511,0.0
-0.0533091787468408,0.066639222698119,-0.03443313055433399,0.0
-0.05346474688824974,0.0665558059878118,-0.03439048342591326,0.0
-0.05353341144721644,0.06668267448934012,-0.03425047209864522,0.0
-0.05356050176149628,0.06672505339682738,-0.03434059433228902,0.0
-0.05342853706223214,0.06668964823361018,-0.03444493227540639,0.0
-0.05352992457508141,0.06681866250260622,-0.03412118960871573,0.0
-0.0534502629578427,0.0667086919198861,-0.03431162647147494,0.0
-0.05354950470322426,0.06665263374479219,-0.034412477542457284,0.0
-0.05370024486783086,0.06671539744322269,-0.03430787137840645,0.0
-0.05350953978413817,0.06678325733938902,-0.03420728852835757,0.0
-0.05340734760848851,0.06663090784918163,-0.03438163213510896,0.0
-0.053503907144535436,0.06675428947857494,-0.034120384945915336,0.0
-0.053546822493889625,0.0667457064087041,-0.034156862992866396,0.0
-0.05363211675073108,0.06668991645454364,-0.03433791212295438,0.0
-0.05354145807522035,0.06670064529188219,-0.03426281026158455,0.0
-0.053510344446938564,0.06677333316485086,-0.034099195492171705,0.0
-0.053623533680860244,0.06659550268596443,-0.03422069957503075,0.0
-0.05355084580789158,0.06683475575861404,-0.034178588888476955,0.0
-0.05355165047069197,0.06681168875833617,-0.03408927131763355,0.0
-0.05354414028455499,0.06672585805962777,-0.03433281592521857,0.0
-0.053526437702946385,0.06671647032695655,-0.03431082180867455,0.0
-0.05370426818183281,0.06668374737307398,-0.03422767331930081,0.0
-0.05351517242374091,0.06664351423305442,-0.03420433809808947,0.0
-0.05359778447124773,0.06661964256997616,-0.034167055388338016,0.0
-0.053660816390611696,0.06670896014081956,-0.03408953953856701,0.0
-0.0534709159697194,0.06671298345482152,-0.03433201126241818,0.0
-0.05332956353778404,0.06664431889585481,-0.0343843143444436,0.0
-0.053469574865052084,0.06665638883786068,-0.03405091572414824,0.0
-0.05358973784324382,0.06666041215186264,-0.03402436185173534,0.0
-0.053476280388388676,0.06669206222201135,-0.03429794720386829,0.0
-0.05362782521579566,0.06665236552385873,-0.03420031478408751,0.0
-0.05372089787970756,0.06665397484945951,-0.03420460631902293,0.0
-0.05350953978413817,0.0666518290819918,-0.0342794399594593,0.0
-0.0535218779470775,0.06672237118749275,-0.03433442525081935,0.0
-0.053664303262746724,0.06664378245398789,-0.03407049585229109,0.0
-0.0534355108065022,0.06655366022034409,-0.03419575502821863,0.0
-0.053438997678637225,0.0665646572786161,-0.03427568486639081,0.0
-0.053492910086263425,0.06655768353434605,-0.034170542260473044,0.0
-0.053601807785249686,0.06669259866387828,-0.0341295044576531,0.0
-0.05351865929587594,0.06659523446503096,-0.03404072332867662,0.0
-0.05347279351625365,0.06653381187126778,-0.034236256389171646,0.0
-0.05371928855410678,0.06659872133716599,-0.03412306715524997,0.0
-0.05367690964661952,0.06666765411706616,-0.03409383107350243,0.0
-0.053340024154189127,0.0665646572786161,-0.034148816364862486,0.0
-0.05325499811828114,0.06660247643023448,-0.034040186886809695,0.0
-0.053335464398320244,0.06663519938411705,-0.03403106737507193,0.0
-0.053360945386999294,0.06660220820930102,-0.034161154527801815,0.0
-0.053595102261913094,0.06662715275611314,-0.03393853115302696,0.0
-0.053535825435617614,0.06662473876771197,-0.034052525049749024,0.0
-0.05353126567974873,0.06657967765089007,-0.03421909024942997,0.0
-0.05361441416912248,0.06662044723277655,-0.03410992432951025,0.0
-0.05371124192610287,0.06667275031480197,-0.03397152232784299,0.0
-0.053843206625367,0.06660274465116794,-0.03407693315469422,0.0
-0.053687638483958064,0.06668079694280588,-0.03400826859572752,0.0
-0.05374208733345119,0.06666121681466303,-0.03402328896800148,0.0
-0.05387029693964683,0.0665048440104537,-0.034209166074891814,0.0
-0.053740209786916945,0.06667409141946928,-0.03417107870233997,0.0
-0.05373055383331225,0.0666215201165104,-0.033973131653443775,0.0
-0.05378258869440421,0.06663761337251822,-0.033908758629412485,0.0
-0.05369809910036315,0.0666362722678509,-0.03400209951425785,0.0
-0.053565329738298625,0.06656680304608381,-0.03413942863219126,0.0
-0.05362782521579566,0.06650243002205253,-0.03414157439965897,0.0
-0.05375657126385823,0.06660193998836755,-0.034004513502659026,0.0
-0.0538638596372437,0.06652120548739499,-0.0340608398986864,0.0
-0.053534484330950295,0.0665233512548627,-0.03411689807378031,0.0
-0.05375442549639052,0.0664871414288451,-0.03408551622456506,0.0
-0.05375415727545706,0.06661803324437537,-0.033933166734357686,0.0
-0.05349854272586616,0.06664458711678828,-0.03395757483930288,0.0
-0.05352536481921253,0.06653595763873549,-0.03415203501606405,0.0
-0.053520000400543256,0.06655205089474331,-0.03409651328283707,0.0
-0.05359644336658041,0.06663224895384895,-0.03394872354849858,0.0
-0.05360448999458432,0.06657324034848694,-0.034016851665598355,0.0
-0.05358759207577611,0.06654346782487247,-0.03400022196772361,0.0
-0.05359832091311466,0.0665410538364713,-0.03409463573630282,0.0
-0.05373860046131616,0.06655553776687834,-0.03399190711878623,0.0
-0.05373752757758231,0.06653059322006621,-0.03399163889785277,0.0
-0.053630239204196836,0.06664083202371979,-0.03421479871449455,0.0
-0.05369085713515963,0.06652442413859655,-0.03418180753967852,0.0
-0.05361360950632209,0.06655821997621297,-0.03422418644716578,0.0
-0.05367986007688762,0.06665021975639102,-0.03393719004835964,0.0
-0.05358678741297572,0.06671405633855537,-0.03391948746675103,0.0
-0.053407615829421974,0.06660623152330297,-0.03411797095751416,0.0
-0.053560233540562815,0.06658289630209163,-0.03400639104919327,0.0
-0.0536726181116841,0.0666880389080094,-0.03385296867525204,0.0
-0.05361441416912248,0.06655661065061219,-0.03400209951425785,0.0
-0.05360046668058237,0.06659550268596443,-0.03403562713094081,0.0
-0.05378875777587387,0.06662286122117772,-0.033954087967167854,0.0
-0.05367878719315376,0.06664539177958867,-0.0338355343145769,0.0
-0.053550577586958116,0.0665979166743656,-0.03391492771088215,0.0
-0.05341593067835935,0.06657163102288616,-0.03408658910829891,0.0
-0.0535012249352008,0.06662581165144582,-0.033911709059680585,0.0
-0.05365759773941013,0.06665263374479219,-0.033768210860277516,0.0
-0.053707486833034376,0.06663761337251822,-0.033918951024884104,0.0
-0.05352321905174482,0.06650457578952024,-0.03388166831513265,0.0
-0.05344945829504231,0.06648740964977856,-0.03393343495529115,0.0
-0.05351249021440627,0.06650833088258873,-0.03384787247751623,0.0
-0.053566134401099016,0.0665440042667394,-0.033797983383891984,0.0
-0.05364579601833773,0.06654668647607404,-0.033829365233107235,0.0
-0.05334807078219304,0.0665528555575437,-0.0339648168045064,0.0
-0.05344945829504231,0.06656331617394878,-0.03377813503481567,0.0
-0.05352911991228102,0.06657619077875504,-0.03375882312760629,0.0
-0.05349773806306577,0.06661105950010532,-0.033943359129829306,0.0
-0.053495055853731134,0.06655741531341258,-0.033938799373960424,0.0
-0.05346421044638281,0.06657672722062197,-0.0336560945100897,0.0
-0.05352268260987789,0.06661293704663956,-0.033640001254081876,0.0
-0.05354199451708728,0.06656143862741454,-0.03376070067414053,0.0
-0.05349559229559806,0.0665077944407218,-0.03388515518726768,0.0
-0.05353609365655108,0.06659738023249867,-0.033817027070167906,0.0
-0.05368683382115767,0.06662312944211118,-0.033725831952790254,0.0
-0.05373860046131616,0.06653488475500163,-0.033702496731578914,0.0
-0.05344945829504231,0.06655714709247912,-0.03392297433888607,0.0
-0.05338186661980946,0.06645119982376096,-0.033793691848956565,0.0
-0.05334270636352376,0.06660596330236951,-0.03363678260288031,0.0
-0.05345884602771354,0.0666333218375828,-0.03376257822067478,0.0
-0.05349022787692879,0.06661803324437537,-0.03381166265149863,0.0
-0.05349344652813035,0.06661105950010532,-0.033710543359582824,0.0
-0.05356130642429667,0.06660837729077068,-0.03364456100995076,0.0
-0.05322898068773516,0.06660274465116794,-0.0336708466614302,0.0
-0.05321932473413047,0.06649384695218169,-0.03384197161698003,0.0
-0.05321127810612656,0.06642974214908387,-0.03388864205940271,0.0
-0.05336577336380164,0.06655070979007599,-0.03373575612732841,0.0
-0.053414857794625493,0.06661722858157498,-0.0337277094993245,0.0
-0.05329952279323611,0.06668750246614247,-0.03386235640792327,0.0
-0.053307032979373094,0.0666821380474732,-0.03370088740597813,0.0
-0.05341002981782315,0.06668830712894286,-0.03365797205662394,0.0
-0.053424513748230186,0.06660435397676873,-0.03361425204446936,0.0
-0.053338414828588344,0.06666389902399766,-0.03378805920935383,0.0
-0.05325955787415002,0.06660113532556716,-0.03389320181527159,0.0
-0.05331856647951203,0.06659335691849672,-0.033738974778529975,0.0
-0.05343443792276834,0.06677735647885281,-0.03357911510218562,0.0
-0.05325285235081343,0.06668857534987632,-0.03386637972192522,0.0
-0.05317426361730857,0.06652898389446543,-0.03381085798869824,0.0
-0.05322361626906589,0.06657458145315426,-0.03367245598703098,0.0
-0.05320349969905611,0.06662768919798007,-0.03366092248689204,0.0
-0.053149050849562986,0.06670815547801917,-0.033722881522522154,0.0
-0.05312544740741818,0.06658987004636169,-0.033870134814993715,0.0
-0.053218251850396615,0.06656599838328342,-0.03385377333805243,0.0
-0.05341217558529086,0.06668455203587437,-0.03371751710385288,0.0
-0.05327109137428896,0.06661240060477264,-0.03377089306961215,0.0
-0.05304015315057673,0.06657806832528929,-0.03389615224553969,0.0
-0.05312008298874891,0.06667301853573543,-0.033838216523911537,0.0
-0.05324748793214416,0.06667516430320314,-0.033736829011062265,0.0
-0.05322388448999935,0.06668374737307398,-0.0337668697556102,0.0
-0.05315226950076455,0.06666014393092917,-0.03383982584951232,0.0
-0.05313698090755712,0.0665920158138294,-0.03393048452502305,0.0
-0.05325553456014807,0.06658772427889398,-0.033862088186989804,0.0
-0.05326975026962164,0.06670144995468258,-0.03370491071998009,0.0
-0.05333734194485449,0.06667275031480197,-0.034044478421745114,0.0
-0.05322200694346511,0.06667677362880392,-0.03406754542202299,0.0
-0.052938229195860526,0.06668347915214051,-0.03385752843112092,0.0
-0.053092188011668685,0.06672880848989587,-0.03375667736013858,0.0
-0.053153342384498405,0.066657729942528,-0.033868793710326396,0.0
-0.05363694472753343,0.06665424307039297,-0.03395247864156707,0.0
-0.05327699223482516,0.06671486100135576,-0.03392592476915417,0.0
-0.05271936091415416,0.06670010885001526,-0.03383902118671193,0.0
-0.052915698637449576,0.06664780576798984,-0.03379771516295852,0.0
-0.05299965178962371,0.06653112966193314,-0.03400317239799171,0.0
-0.05306134260432036,0.06659469802316403,-0.03392807053662188,0.0
-0.052992141603486725,0.06661803324437537,-0.033820513942302934,0.0
-0.05302379167363545,0.06663493116318359,-0.03384814069844969,0.0
-0.05298221742894857,0.06657458145315426,-0.03394791888569819,0.0
-0.053092188011668685,0.06659469802316403,-0.03390553997821092,0.0
-0.05322442093186628,0.06662393410491158,-0.03377411172081372,0.0
-0.05315092839609723,0.06663949091905247,-0.03378671810468651,0.0
-0.05308253205806399,0.06657994587182353,-0.03381970927950254,0.0
-0.053058660394985725,0.06667194565200157,-0.03383043811684109,0.0
-0.053123569860883936,0.06674731573430488,-0.03381461308176673,0.0
-0.05316997208237315,0.06660301287210141,-0.03365126653328735,0.0
-0.05323836842040639,0.0665402491736709,-0.03381568596550059,0.0
-0.05317989625691131,0.06667328675666889,-0.033786449883753046,0.0
-0.05319974460598762,0.06665317018665912,-0.03374675318560042,0.0
-0.053312129177108904,0.06661025483730493,-0.03375560447640472,0.0
-0.053009844185095335,0.0666791876172051,-0.03376713797654366,0.0
-0.05291435753278226,0.06653032499913275,-0.03397983717678037,0.0
-0.053176677605709745,0.06665263374479219,-0.033822123267903716,0.0
-0.05344221632983879,0.06664324601212096,-0.03363866014941456,0.0
-0.05338991324781337,0.06666041215186264,-0.033766601534676734,0.0
-0.053016281487498464,0.06656009752274722,-0.03389320181527159,0.0
-0.05309540666287025,0.0666008671046337,-0.03377142951147908,0.0
-0.053249633699611866,0.0667583127925769,-0.033685062370903775,0.0
-0.05324748793214416,0.06653971273180398,-0.033774648162680644,0.0
-0.05331320206084276,0.06656680304608381,-0.03390553997821092,0.0
-0.053427464178498286,0.06661240060477264,-0.03385672376832053,0.0
-0.05371794744943946,0.06666979988453386,-0.03370383783624623,0.0
-0.053514904202807446,0.06664244134932057,-0.03375882312760629,0.0
-0.05299562847562175,0.06654534537140672,-0.03397125410690953,0.0
-0.05300126111522449,0.06655714709247912,-0.03385082290778433,0.0
-0.05319733061758645,0.06656063396461415,-0.03379020497682154,0.0
-0.0532826248744279,0.06668321093120705,-0.03384411738444774,0.0
-0.053219592955063934,0.06659067470916208,-0.03405654836375098,0.0
-0.05300474798735952,0.06658933360449476,-0.033792887186156174,0.0
-0.05301145351069612,0.0667027910593499,-0.0337277094993245,0.0
-0.05319652595478606,0.06666336258213074,-0.03383982584951232,0.0
-0.05314985551236338,0.06655258733661024,-0.03375855490667282,0.0
-0.05317909159411092,0.06659523446503096,-0.033774648162680644,0.0
-0.05330891052590734,0.06657753188342236,-0.033744875639066176,0.0
-0.053353703421795774,0.06658128697649085,-0.033683721266236456,0.0
-0.054007626057580235,0.06658075053462392,-0.033814881302700196,0.0
-0.053174531838242035,0.06656036574368068,-0.03393719004835964,0.0
-0.05275771650763947,0.06652361947579616,-0.033886496291935,0.0
-0.05333439151458639,0.06660301287210141,-0.03374648496466696,0.0
-0.05312330163995047,0.06667731007067085,-0.03380629823282936,0.0
-0.05301252639442997,0.0665372987434028,-0.03393102096688998,0.0
-0.053119814767815444,0.06660408575583526,-0.03371322556891746,0.0
-0.05318311490811287,0.06669259866387828,-0.03367433353356523,0.0
-0.05339795987581728,0.06654883224354174,-0.03380415246536165,0.0
-0.05331615249111086,0.06649062830098013,-0.033795032953623884,0.0
-0.053227639583067844,0.0665882607207609,-0.03382319615163757,0.0
-0.05329067150243181,0.06653381187126778,-0.03378805920935383,0.0
-0.053237831978539464,0.06658477384862588,-0.03362149400967288,0.0
-0.05314556397742796,0.06652737456886465,-0.03381246731429902,0.0
-0.0532826248744279,0.06645334559122867,-0.0338178317329683,0.0
-0.053285575304696,0.06646380620763376,-0.0337159077782521,0.0
-0.053175336501042426,0.06652147370832845,-0.033757213802005505,0.0
-0.053234345106404436,0.0664753397077727,-0.03383177922150841,0.0
-0.053363091154467,0.06650672155698795,-0.033744070976265785,0.0
-0.0534532133881108,0.06652308303392923,-0.033579383323119084,0.0
-0.053251779467079575,0.06654373604580593,-0.033618811800338246,0.0
-0.053014940382831145,0.06643805699802124,-0.033717785324786344,0.0
-0.05306777990672349,0.06642035441641264,-0.03372261330158869,0.0
-0.05326975026962164,0.06646595197510147,-0.03363785548661417,0.0
-0.053353703421795774,0.06652603346419733,-0.033798788046692375,0.0
-0.05318204202437902,0.06644395785855745,-0.0337365607901288,0.0
-0.053098088872204886,0.06641874509081186,-0.03360540075366506,0.0
-0.05315521993103265,0.06642464595134806,-0.03346458476359663,0.0
-0.053228444245868235,0.06643403368401929,-0.0335238615898921,0.0
-0.05316112079156885,0.0665861149532932,-0.033591185044191486,0.0
-0.05321798362946315,0.06653863984807012,-0.0337188582085202,0.0
-0.053404665399153874,0.06646595197510147,-0.03358179731152026,0.0
-0.053400373864218455,0.06648526388231085,-0.03351259631068663,0.0
-0.053170240303306616,0.06656009752274722,-0.033536467973764895,0.0
-0.05303478873190746,0.0665048440104537,-0.033678625068500646,0.0
-0.053253120571746894,0.06650296646391946,-0.03365287585888813,0.0
-0.05319679417571952,0.06657699544155543,-0.03342006008864166,0.0
-0.053110427035144216,0.06658960182542822,-0.03361237449793512,0.0
-0.05318204202437902,0.06653247076660046,-0.03365797205662394,0.0
-0.053214496757328124,0.06647346216123845,-0.033456269914659255,0.0
-0.05330944696777427,0.06654615003420711,-0.03343427579811523,0.0
-0.053083336720864384,0.06661722858157498,-0.03339699308836378,0.0
-0.05310694016300919,0.06658557851142627,-0.033524129810825566,0.0
-0.05310425795367455,0.06658209163929124,-0.03350776833388428,0.0
-0.05313456691915595,0.06660220820930102,-0.03338465492542445,0.0
-0.05319947638505416,0.06663654048878437,-0.03336158792514657,0.0
-0.05315307416356494,0.06659255225569632,-0.03349113863600953,0.0
-0.053128666058619746,0.06654051739460437,-0.03351259631068663,0.0
-0.05321208276892695,0.06658665139516012,-0.03343856733305065,0.0
-0.05324748793214416,0.0667116423501542,-0.03336695234381584,0.0
-0.05314583219836142,0.06658557851142627,-0.03355014724137154,0.0
-0.05334780256125957,0.06655446488314448,-0.03362068934687249,0.0
-0.05335477630552963,0.06655768353434605,-0.033421401193308976,0.0
-0.053186065338380974,0.06674221953656907,-0.03329185048244601,0.0
-0.053286648188429854,0.06674972972270606,-0.033346835773806066,0.0
-0.05315817036130075,0.06668750246614247,-0.03354049128776685,0.0
-0.05320484080372343,0.06663546760505051,-0.03346082967052814,0.0
-0.05310506261647494,0.06664110024465325,-0.033292118703379475,0.0
-0.053116864337547344,0.06669528087321291,-0.033438030891183725,0.0
-0.05321637430386237,0.06660220820930102,-0.03359601302099383,0.0
-0.05308011806966282,0.06664270957025403,-0.033384118483557525,0.0
-0.05315441526823226,0.06671942075722465,-0.03328165808697439,0.0
-0.0531149867910131,0.0666842838149409,-0.03344661396105456,0.0
-0.053020841243367346,0.06662661631424621,-0.033621762230606346,0.0
-0.053115523232880026,0.06660435397676873,-0.03343615334464948,0.0
-0.05325365701361382,0.06666550834959845,-0.03331223527338925,0.0
-0.05307126677885852,0.06663385827944973,-0.03336963455315048,0.0
-0.052905506241977956,0.06655124623194292,-0.03355282945070618,0.0
-0.052970147486942704,0.06666041215186264,-0.03353405398536372,0.0
-0.05311015881421075,0.06670627793148493,-0.03347906869400367,0.0
-0.05312330163995047,0.06672800382709548,-0.033225063470013555,0.0
-0.0532826248744279,0.06660354931396834,-0.03334978620407417,0.0
-0.053282356653494435,0.06656143862741454,-0.03339377443716222,0.0
-0.05311874188408159,0.06668830712894286,-0.033254835993628024,0.0
-0.05306724346485656,0.06675133904830684,-0.03328004876137361,0.0
-0.05309165156980176,0.06676957807178237,-0.033395383762763,0.0
-0.05310720838394265,0.06672827204802895,-0.033440176658651434,0.0
-0.053105330837408406,0.06667999228000548,-0.033346031111005675,0.0
-0.0531444910936941,0.06668642958240861,-0.03328031698230707,0.0
-0.0530581239531188,0.0666821380474732,-0.03339270155342836,0.0
-0.05302861965043779,0.06654293138300554,-0.03353003067136177,0.0
-0.05306777990672349,0.06673980554816789,-0.03338250915795674,0.0
-0.05319813528038684,0.06672612628056124,-0.03336373369261428,0.0
-0.05327591935109131,0.06668991645454364,-0.03336748878568277,0.0
-0.05304176247617751,0.06670144995468258,-0.03352198404335786,0.0
-0.05300474798735952,0.06665612061692722,-0.03313225902703512,0.0
-0.053096479546604104,0.06672961315269627,-0.03305152452606255,0.0
-0.05325580278108153,0.06667221387293504,-0.033224258807213164,0.0
-0.0531061355002088,0.06660193998836755,-0.033330742517798245,0.0
-0.053009039522294944,0.06673014959456319,-0.03327575722643819,0.0
-0.05319893994318723,0.06677923402538706,-0.033167395969318864,0.0
-0.053097284209404495,0.06671995719909157,-0.03321889438854389,0.0
-0.053111768139811534,0.06660193998836755,-0.033387873576626016,0.0
-0.0530278149876374,0.06669501265227945,-0.03333235184339903,0.0
-0.05314851440769606,0.06676287254844578,-0.03318885364399596,0.0
-0.053269213827754715,0.06666524012866498,-0.03321299352800769,0.0
-0.05338133017794253,0.0665735085694204,-0.033411208797837356,0.0
-0.0531688991986393,0.06664244134932057,-0.03331357637805657,0.0
-0.05299562847562175,0.0667086919198861,-0.03310650981742261,0.0
-0.05303291118537321,0.06670922836175303,-0.03315854467851456,0.0
-0.053122765198083545,0.06653166610380007,-0.03328138986604093,0.0
-0.053213960315461196,0.06659925777903292,-0.033370170995017406,0.0
-0.05322147050159818,0.06663493116318359,-0.03318456210906054,0.0
-0.05313698090755712,0.0666459282214556,-0.033055279619131045,0.0
-0.05312732495395243,0.06667328675666889,-0.033199582481334505,0.0
-0.05315226950076455,0.066609718395438,-0.03334281245980411,0.0
-0.05318311490811287,0.0666400273609194,-0.033217016842009645,0.0
-0.05324480572280952,0.06664056380278632,-0.0332720021333697,0.0
-0.053135103361022874,0.06664163668652018,-0.033395383762763,0.0
-0.05312812961675282,0.06657002169728538,-0.03325242200522685,0.0
-0.05319223441985064,0.0665882607207609,-0.0332269410165478,0.0
-0.05317935981504438,0.06662956674451431,-0.03311241067795881,0.0
-0.053217447187596224,0.06656519372048303,-0.033141914980639814,0.0
-0.05321422853639466,0.06656438905768264,-0.03334415356447143,0.0
-0.05332071224697974,0.0665440042667394,-0.033264491947232716,0.0
-0.05319142975705025,0.06656277973208186,-0.03320414223720339,0.0
-0.05319518485011874,0.06657860476715621,-0.03317463793452238,0.0
-0.05322066583879779,0.06658504206955934,-0.033255640656428415,0.0
-0.053275114688290916,0.06662312944211118,-0.03331518570365735,0.0
-0.052987850068551307,0.06660435397676873,-0.03322747745841473,0.0
-0.05300099289429103,0.06666926344266694,-0.03318697609746171,0.0
-0.053046322232046396,0.06669769486161409,-0.033274684342704336,0.0
-0.053084141383664775,0.06663519938411705,-0.03335005442500763,0.0
-0.053152537721698014,0.0666606803727961,-0.033301506436050704,0.0
-0.05323836842040639,0.06666765411706616,-0.033321891226993944,0.0
-0.05319518485011874,0.06661910612810923,-0.033381972716089815,0.0
-0.053162193675302706,0.06657538611595465,-0.03350669545015043,0.0
-0.0530905786860679,0.06657565433688811,-0.03318241634159283,0.0
-0.05309996641873913,0.06669045289641057,-0.033096049201017524,0.0
-0.05319974460598762,0.06663975913998593,-0.03327709833110551,0.0
-0.053017086150298855,0.06655714709247912,-0.033367220564749306,0.0
-0.05294681226573136,0.06652469235953001,-0.033263687284432325,0.0
-0.05305973327871958,0.06657002169728538,-0.033241156726021376,0.0
-0.0530817273952636,0.06657270390662001,-0.033411745239704284,0.0
-0.053165680547437734,0.06660274465116794,-0.03336963455315048,0.0
-0.05327565113015784,0.06658665139516012,-0.03320011892320143,0.0
-0.053065097697388854,0.06660167176743409,-0.033149961608643724,0.0
-0.053201353931588403,0.06665236552385873,-0.03323981562135406,0.0
-0.05308870113953366,0.06662768919798007,-0.033356223506477295,0.0
-0.053030228976038575,0.06662634809331275,-0.033355418843676904,0.0
-0.05319947638505416,0.06668589314054169,-0.03332028190139316,0.0
-0.05328128376976058,0.06661213238383917,-0.03339404265809568,0.0
-0.05298945939415209,0.06663224895384895,-0.03333449761086674,0.0
-0.053009039522294944,0.06660435397676873,-0.03334764043660646,0.0
-0.053168630977705834,0.06661696036064152,-0.03319126763239713,0.0
-0.05316407122183695,0.06656653482515035,-0.03326744237750082,0.0
-0.05309782065127142,0.06657511789502119,-0.03334629933193914,0.0
-0.053092188011668685,0.06655178267380985,-0.03339189689062797,0.0
-0.053160047907835,0.06655178267380985,-0.03328004876137361,0.0
-0.05321664252479583,0.06660059888370023,-0.03325242200522685,0.0
-0.05324507394374298,0.06663385827944973,-0.0333347658318002,0.0
-0.053049272662314496,0.06652469235953001,-0.03341389100717199,0.0
-0.053055709964717625,0.06653568941780202,-0.033299360668582995,0.0
-0.05319142975705025,0.06656143862741454,-0.03320521512093724,0.0
-0.053127056733018964,0.06655392844127755,-0.03331277171525618,0.0
-0.05316997208237315,0.06654668647607404,-0.0334463457401211,0.0
-0.05324507394374298,0.06659925777903292,-0.0333229641107278,0.0
-0.053197867059453376,0.0666880389080094,-0.03319314517893138,0.0
-0.05319518485011874,0.06659577090689789,-0.033390019344093726,0.0
-0.05309755243033796,0.06653756696433627,-0.03332832852939707,0.0
-0.053249633699611866,0.06649706560338325,-0.03322023549321121,0.0
-0.05325151124614611,0.06654212672020515,-0.033128772154900094,0.0
-0.05330971518870773,0.06657672722062197,-0.033130381480500876,0.0
-0.05302352345270198,0.066609718395438,-0.03329399624991372,0.0
-0.05291435753278226,0.0665853102904928,-0.03330392042445188,0.0
-0.05315226950076455,0.06662178833744387,-0.03316069044598227,0.0
-0.05322737136213438,0.06661079127917185,-0.03314915694584333,0.0
-0.053153342384498405,0.06661508281410727,-0.03328594962190981,0.0
-0.05312222875621662,0.066687234245209,-0.03331518570365735,0.0
-0.05326009431601695,0.06664700110518945,-0.0331014136196868,0.0
-0.05314422287276064,0.06672317585029314,-0.03307593263100775,0.0
-0.05305329597631645,0.06665746172159454,-0.03323042788868283,0.0
-0.053097284209404495,0.06657270390662001,-0.033206824446538025,0.0
-0.05313027538422053,0.06667650540787046,-0.03313520945730322,0.0
-0.05315441526823226,0.06662554343051236,-0.033020947339647694,0.0
-0.053309983409641194,0.06658209163929124,-0.033187244318395176,0.0
-0.05309326089540254,0.06656304795301532,-0.033190194748663276,0.0
-0.052994287370954435,0.06645710068429717,-0.03322130837694506,0.0
-0.052889412985970136,0.06657458145315426,-0.032975886222825795,0.0
-0.052818602659535724,0.06660569508143604,-0.03297052180415652,0.0
-0.05286929641596036,0.06651879149899381,-0.0331730286089216,0.0
-0.05292106305611885,0.06653381187126778,-0.03320655622560456,0.0
-0.05307502187192701,0.0665048440104537,-0.03315103449237758,0.0
-0.053065097697388854,0.06657753188342236,-0.0330563525028649,0.0
-0.052789634798721646,0.06655473310407795,-0.03313118614330127,0.0
-0.05295003091693293,0.06659282047662979,-0.033177051922923556,0.0
-0.053084141383664775,0.06658557851142627,-0.03291365896626222,0.0
-0.05286446843915801,0.06660408575583526,-0.03300404942083948,0.0
-0.05285186205528522,0.06644047098642242,-0.03318992652772981,0.0
-0.05290711556757874,0.06650135713831867,-0.03319287695799791,0.0
-0.052983290312682424,0.06660703618610336,-0.0329876879438982,0.0
-0.05298945939415209,0.06653247076660046,-0.032988224385765125,0.0
-0.05288243924170008,0.06651771861525996,-0.033119384422228865,0.0
-0.0528985324977079,0.06648955541724627,-0.03310168184062026,0.0
-0.052949494475066,0.06650833088258873,-0.03298044597869468,0.0
-0.053084141383664775,0.06667570074507007,-0.0330142418163111,0.0
-0.05319464840825181,0.06651691395245957,-0.03315318025984529,0.0
-0.05278105172885081,0.06645871000989795,-0.033060375816866855,0.0
-0.05272928508869232,0.06644395785855745,-0.03297347223442462,0.0
-0.05288994942783706,0.06653703052246934,-0.032944504373610545,0.0
-0.05290041004424215,0.06646461087043415,-0.033045891886459816,0.0
-0.052926427474788124,0.06639836029986862,-0.033085052142745514,0.0
-0.053084946046465166,0.06645334559122867,-0.03295925652495105,0.0
-0.052966660614807676,0.06648097234737543,-0.03294128572240898,0.0
-0.052761203379774496,0.06649277406844784,-0.0329935888044344,0.0
-0.05280867848499757,0.06644690828882555,-0.03311187423609188,0.0
-0.0528505209506179,0.0665343483131347,-0.032938603513074344,0.0
-0.05292830502132237,0.0665646572786161,-0.03280851636034445,0.0
-0.05291838084678421,0.06649491983591554,-0.032956842536549874,0.0
-0.05290577446291142,0.06639380054399974,-0.033102754724354116,0.0
-0.05295512711466874,0.06637878017172577,-0.03300619518830719,0.0
-0.05300716197576069,0.06652496058046348,-0.032871548279708424,0.0
-0.05288029347423237,0.06654910046447521,-0.032977227327493114,0.0
-0.052831745485275444,0.06639809207893516,-0.03315264381797836,0.0
-0.05305195487164913,0.06650001603365135,-0.03319770493480026,0.0
-0.05317989625691131,0.06640479760227175,-0.03301209604884339,0.0
-0.05303291118537321,0.0664243777304146,-0.032943699710810154,0.0
-0.05269441636734204,0.06639433698586666,-0.03306734956113691,0.0
-0.05301038062696226,0.0663704653227884,-0.03306600845646959,0.0
-0.053192770861717566,0.06644315319575705,-0.032895688163720155,0.0
-0.05264694126211897,0.06641981797454571,-0.03288147245424658,0.0
-0.052678054890400755,0.06639728741613476,-0.03308558858461244,0.0
-0.05271050962334986,0.0664058704860056,-0.03308478392181205,0.0
-0.05285669003208757,0.06650323468485292,-0.03285947833770256,0.0
-0.05293849741679399,0.06656224329021493,-0.03288388644264775,0.0
-0.05270326765814634,0.06648687320791163,-0.03296971714135613,0.0
-0.05261582763383718,0.06643457012588622,-0.033042136793391325,0.0
-0.05276683601937723,0.06649411517311515,-0.032962743397086075,0.0
-0.05281189713619913,0.06659094293009554,-0.03285813723303524,0.0
-0.05278614792658662,0.0665381034062032,-0.032955501431882556,0.0
-0.052734113065494664,0.06646005111456527,-0.03304884231672792,0.0
-0.05283603702021086,0.0663578589389156,-0.0330504516423287,0.0
-0.05290416513731064,0.06657270390662001,-0.03294906412947943,0.0
-0.0528475705203498,0.06659389336036364,-0.03276184591792177,0.0
-0.05281270179899952,0.06649438339404862,-0.033002171874305236,0.0
-0.05288190279983315,0.06656894881355152,-0.03304347789805864,0.0
-0.05292320882358656,0.06655097801100945,-0.03275004419684937,0.0
-0.05284113321794667,0.06656009752274722,-0.032854113919033284,0.0
-0.05281377468273338,0.06647185283563767,-0.033041332130590934,0.0
-0.05281457934553377,0.0664538820330956,-0.033037845258455906,0.0
-0.052793926333657065,0.06653193432473353,-0.03294101750147552,0.0
-0.05285481248555332,0.0666303714073147,-0.032838825325825854,0.0
-0.052745914786567066,0.06652737456886465,-0.03299224769976708,0.0
-0.05267751844853383,0.0665204008245946,-0.03309765852661831,0.0
-0.052726066437490754,0.06654051739460437,-0.032843921523561664,0.0
-0.0527877572521874,0.06652361947579616,-0.03286564741917222,0.0
-0.05278614792658662,0.06651047665005644,-0.033007268072041046,0.0
-0.052877074823030806,0.06645468669589599,-0.033026848200183895,0.0
-0.05273867282136355,0.0665381034062032,-0.03286967073317418,0.0
-0.052740013926030865,0.06660623152330297,-0.032944504373610545,0.0
-0.05274189147256511,0.06649143296378052,-0.03295013701321328,0.0
-0.052698439681343995,0.06639916496266901,-0.032913122524395294,0.0
-0.05269790323947707,0.06645656424243024,-0.03285599146556753,0.0
-0.05283657346207779,0.0664605875564322,-0.03283721600022507,0.0
-0.052800363636060194,0.06649679738244979,-0.03286028300050295,0.0
-0.05263272555264539,0.0665587564180799,-0.032946650141078254,0.0
-0.05262789757584305,0.0664774854752404,-0.03293913995494127,0.0
-0.05274779233310131,0.0665254970223304,-0.032782498929798475,0.0
-0.05276066693790757,0.06651771861525996,-0.03282407317448535,0.0
-0.052672958692664945,0.06651101309192337,-0.032913927187195685,0.0
-0.05271855625135377,0.06646246510296644,-0.03284418974449513,0.0
-0.05283523235741047,0.06647346216123845,-0.03276265058072216,0.0
-0.052836841683011254,0.06656733948795074,-0.03284016643049317,0.0
-0.05281779799673533,0.06647319394030499,-0.032890591965984345,0.0
-0.05274323257723243,0.06653247076660046,-0.032885495768248535,0.0
-0.05281082425246528,0.0665372987434028,-0.03293055688507043,0.0
-0.052823698857271534,0.06648231345204275,-0.03266501816094138,0.0
-0.05278909835685472,0.06643591123055353,-0.03283265624435619,0.0
-0.05287090574156114,0.06639433698586666,-0.0328887144194501,0.0
-0.052892899858105163,0.06651315885939107,-0.03275138530151669,0.0
-0.05290657912571181,0.06649840670805057,-0.03272992762683959,0.0
-0.05296049153333801,0.0663940687649332,-0.032945309036410936,0.0
-0.05288002525329891,0.06639058189279817,-0.032927874675735797,0.0
-0.05277702841484885,0.06647399860310538,-0.0327143708126987,0.0
-0.05290309225357678,0.06650082069645175,-0.032715443696432554,0.0
-0.052777833077649244,0.06644395785855745,-0.03285465036090021,0.0
-0.05283657346207779,0.06639540986960052,-0.032901589024256356,0.0
-0.05280867848499757,0.06639380054399974,-0.03271785768483373,0.0
-0.05277380976364729,0.06650698977792141,-0.03262773545118993,0.0
-0.05278051528698388,0.06643859343988817,-0.03273126873150691,0.0
-0.052723920670023044,0.06641928153267879,-0.032923314919866914,0.0
-0.052806264496596395,0.06641901331174532,-0.032781694266998083,0.0
-0.05282933149687427,0.06641633110241069,-0.03246921687951289,0.0
-0.05278427038005237,0.06645200448656136,-0.03266099484693943,0.0
-0.05281297001993299,0.06640399293947136,-0.03277391585992764,0.0
-0.05285186205528522,0.06628248885661231,-0.03273904713857736,0.0
-0.052805459833796003,0.06647855835897426,-0.03257838279943261,0.0
-0.05272713932122461,0.06644959049816018,-0.032653484660802444,0.0
-0.05273518594922852,0.066369660659988,-0.032833729128090045,0.0
-0.05271265539081757,0.06636429624131873,-0.03265911730040518,0.0
-0.05277971062418349,0.06641364889307605,-0.03258857519490423,0.0
-0.05288753543943589,0.06649062830098013,-0.03263765962572809,0.0
-0.0526348713201131,0.06636107759011717,-0.03281200323247948,0.0
-0.05254662663300355,0.06637019710185493,-0.03275138530151669,0.0
-0.052742964356298966,0.06643644767242046,-0.03259340317170658,0.0
-0.05294439827733019,0.06646326976576683,-0.032628003672123394,0.0
-0.052571034737948746,0.06633747414797236,-0.0327682832203249,0.0
-0.052484935818306905,0.0661990721463051,-0.032712493266164454,0.0
-0.052731162635226564,0.06636858777625415,-0.03261807949758524,0.0
-0.05262655647117573,0.06654454070860633,-0.0325223246243387,0.0
-0.05249995619058087,0.06643215613748504,-0.0327084699521625,0.0
-0.05241680770120712,0.0664029200557375,-0.0328554550237006,0.0
-0.052578276703152266,0.06638387636946158,-0.03271812590576719,0.0
-0.05267242225079802,0.06633479193863773,-0.03256068021782401,0.0
-0.05270165833254556,0.06640104250920326,-0.03277767095299613,0.0
-0.05253187448166305,0.06631977156636376,-0.03281280789527987,0.0
-0.052448994213222765,0.06629563168235203,-0.03266850503307641,0.0
-0.052566474982079864,0.06642491417228152,-0.03251535088006864,0.0
-0.052586859773023104,0.06644610362602515,-0.032602522683444345,0.0
-0.05256754786581372,0.06636778311345376,-0.032770160766859145,0.0
-0.05253133803979612,0.06638441281132851,-0.03272456320817032,0.0
-0.052680200657868465,0.06635893182264946,-0.03279456887180434,0.0
-0.052718019809486844,0.06637153820652225,-0.032640341835062724,0.0
-0.05272660287935768,0.06628007486821114,-0.03263363631172613,0.0
-0.05265096457612092,0.06629107192648315,-0.03270981105682982,0.0
-0.05258015424968651,0.06640989380000756,-0.032579187462233004,0.0
-0.05260778100583327,0.06643966632362203,-0.03258991629957155,0.0
-0.05250585705111707,0.06634230212477471,-0.03268084319601574,0.0
-0.0525455537492697,0.066310652054626,-0.032730732289639984,0.0
-0.052636480645713885,0.06638199882292734,-0.032564703531825966,0.0
-0.05259088308702506,0.06634954408997823,-0.03257382304356373,0.0
-0.05249539643471199,0.06638602213692929,-0.0327594319295206,0.0
-0.052600807261563215,0.06627390578674147,-0.032791350220602776,0.0
-0.052619850947839136,0.06641794042801147,-0.03257221371796295,0.0
-0.052646673041185504,0.06636268691571795,-0.03255424291542088,0.0
-0.052646673041185504,0.06641525821867683,-0.03261620195105099,0.0
-0.052511221469786346,0.06631226138022678,-0.03271276148709792,0.0
-0.052518463434989865,0.06632325843849879,-0.03263363631172613,0.0
-0.052565938540212936,0.06643859343988817,-0.03245687871657356,0.0
-0.052451944643490865,0.06648204523110929,-0.03262398035812144,0.0
-0.052444702678287346,0.06632003978729722,-0.03279698286020551,0.0
-0.0524457755620212,0.06632138089196454,-0.03258911163677116,0.0
-0.052479839620571095,0.06643993454455549,-0.032541100089681155,0.0
-0.052432900957214944,0.06645146804469443,-0.032555852241021664,0.0
-0.052433705620015335,0.06636107759011717,-0.03265616687013708,0.0
-0.052514171900054446,0.0663793166135927,-0.03265375288173591,0.0
-0.0525004926324478,0.0664147217768099,-0.03256228954342479,0.0
-0.05260778100583327,0.0663822670438608,-0.032569799729561776,0.0
-0.05240178732893316,0.06635008053184516,-0.032729391184972666,0.0
-0.05235377578184316,0.066340156357307,-0.03269398602175546,0.0
-0.05242619543387835,0.06644664006789208,-0.032563094206225184,0.0
-0.05252087742339104,0.06630501941502326,-0.03258669764836999,0.0
-0.05239642291026388,0.06633988813637354,-0.0326575079748044,0.0
-0.052339023630502655,0.066406675148806,-0.0327173212429668,0.0
-0.05239561824746349,0.06638146238106041,-0.03258401543903535,0.0
-0.05247072010883333,0.06622535779778455,-0.03261754305571831,0.0
-0.0524007144451993,0.06618002846002918,-0.03277767095299613,0.0
-0.052503174841782435,0.06628436640314656,-0.032781157825131156,0.0
-0.05242163567800947,0.06623689129792348,-0.03266179950973982,0.0
-0.0523379507467688,0.06633801058983929,-0.03254270941528194,0.0
-0.052292353188079975,0.06628382996127963,-0.03258106500876725,0.0
-0.05225185182712696,0.06656036574368068,-0.03246653467017825,0.0
-0.05236262707264746,0.06648284989390968,-0.03240430741361468,0.0
-0.05235806731677858,0.06642679171881577,-0.032365415378262444,0.0
-0.05221698310577668,0.0664597828936318,-0.03240323452988082,0.0
-0.05220223095443618,0.0664243777304146,-0.03262827189305686,0.0
-0.05230388668821891,0.06640721159067292,-0.03244963675137004,0.0
-0.05238113431705645,0.06643939810268856,-0.03234127549425071,0.0
-0.05234760670037349,0.0664420803120232,-0.03237104801786518,0.0
-0.05229557183928154,0.06637475685772382,-0.032529566589542216,0.0
-0.05232829479316411,0.06637743906705845,-0.032490138112323055,0.0
-0.05241278438720517,0.0664273281606827,-0.032380703971469874,0.0
-0.05240768818946936,0.06643376546308583,-0.032427374413892554,0.0
-0.052340364735169974,0.06640694336973946,-0.032617811276651774,0.0
-0.05241519837560634,0.06631601647329527,-0.03263873250946194,0.0
-0.052565938540212936,0.06639514164866706,-0.03258321077623496,0.0
-0.052360213084246286,0.06645736890523063,-0.032663677056274064,0.0
-0.05240259199173355,0.06632272199663186,-0.03262344391625451,0.0
-0.05232105282796059,0.06629911855448706,-0.032577041694765295,0.0
-0.05248332649270612,0.0663667102297199,-0.03253868610127998,0.0
-0.052549845284205116,0.06632996396183538,-0.03252903014767529,0.0
-0.05237952499145567,0.06650135713831867,-0.032611373974248646,0.0
-0.052405274201068185,0.06655553776687834,-0.03282756004662038,0.0
-0.052338218967702264,0.06658262808115817,-0.0326663592656087,0.0
-0.052304691351019304,0.06647855835897426,-0.03238606839013915,0.0
-0.052356457991177795,0.06646407442856722,-0.03256577641555982,0.0
-0.052230394152449865,0.0664088209162737,-0.03271598013829948,0.0
-0.05231944350235981,0.06636724667158683,-0.03265402110266937,0.0
-0.052420562794275614,0.06650564867325409,-0.03252339750807255,0.0
-0.05238837628225997,0.06642303662574728,-0.03271463903363216,0.0
-0.05240554242200165,0.06633371905490387,-0.03280261549980825,0.0
-0.052413320829072095,0.06641498999774337,-0.03271571191736602,0.0
-0.0524007144451993,0.06648955541724627,-0.03254163653154808,0.0
-0.052370405479717906,0.06646380620763376,-0.03256658107836021,0.0
-0.052325880804762935,0.06635946826451639,-0.03282460961635228,0.0
-0.05237845210772182,0.06637663440425806,-0.03277498874366149,0.0
-0.05241010217787053,0.06649116474284705,-0.032571140834229094,0.0
-0.052395886468396956,0.0663549085086475,-0.03264758380026624,0.0
-0.05247420698096836,0.06623286798392153,-0.03283346090715658,0.0
-0.05248949557417579,0.06636563734598605,-0.03275245818525054,0.0
-0.052364504619181705,0.06647963124270811,-0.03261432440451675,0.0
-0.05239561824746349,0.06648070412644197,-0.03260815532304708,0.0
-0.05234358338637154,0.0664723892775046,-0.03274012002231121,0.0
-0.052311396874355896,0.06648499566137739,-0.032706055963761325,0.0
-0.052207863594038915,0.06645871000989795,-0.03262854011399032,0.0
-0.052392936038128855,0.0664863367660447,-0.03273529204550887,0.0
-0.05242485432921103,0.06642035441641264,-0.03277203831339339,0.0
-0.05235592154931087,0.06645066338189404,-0.03267708810294725,0.0
-0.05223173525711718,0.06650082069645175,-0.03264168293973004,0.0
-0.05232936767689796,0.0664635379867003,-0.03255612046195513,0.0
-0.0522928896299469,0.06645522313776292,-0.032625857904655685,0.0
-0.0522987904904831,0.06640506582320521,-0.032782498929798475,0.0
-0.05236262707264746,0.06649250584751437,-0.032602522683444345,0.0
-0.05236718682851634,0.06658772427889398,-0.03245902448404127,0.0
-0.05238542585199187,0.06648284989390968,-0.03261727483478485,0.0
-0.0524007144451993,0.06638146238106041,-0.032619957044119484,0.0
-0.052391863154395,0.06641794042801147,-0.032557998008489374,0.0
-0.05240795641040282,0.06652791101073158,-0.03248343258898646,0.0
-0.05241385727093902,0.0664774854752404,-0.032540295426880764,0.0
-0.05239454536372964,0.06640533404413868,-0.03269049914962043,0.0
-0.05241197972440478,0.06646085577736566,-0.03260869176491401,0.0
-0.05248600870204076,0.06651503640592532,-0.03248262792618607,0.0
-0.05258498222648886,0.06650752621978834,-0.032504622042730094,0.0
-0.05235833553771204,0.06646192866109951,-0.032646242695598925,0.0
-0.05235323933997623,0.06636134581105063,-0.03270203264975937,0.0
-0.05248976379510925,0.06636831955532069,-0.03256228954342479,0.0
-0.05264211328531662,0.06650698977792141,-0.03253573567101188,0.0
-0.05250290662084897,0.06652201015019538,-0.03267360123081222,0.0
-0.05230066803701735,0.0663527627411798,-0.03267199190521144,0.0
-0.05231676129302517,0.06636107759011717,-0.03261459262545021,0.0
-0.05240688352666897,0.06661830146530884,-0.03252607971740719,0.0
-0.05240929751507014,0.06646112399829912,-0.0325400272059473,0.0
-0.05244336157362003,0.06647399860310538,-0.032664481719074455,0.0
-0.05245382219002511,0.06642625527694884,-0.032552901810753564,0.0
-0.05246320992269635,0.06640506582320521,-0.032485846577387636,0.0
-0.05245355396909165,0.06644556718415823,-0.03258911163677116,0.0
-0.05247286587630104,0.06649465161498208,-0.03260440022997859,0.0
-0.05242887764321299,0.06645951467269834,-0.03259581716010775,0.0
-0.05240125088706623,0.06645227270749482,-0.032555852241021664,0.0
-0.052350557130641594,0.06648016768457504,-0.03260279090437781,0.0
-0.05234572915383925,0.0664117713465418,-0.03272590431283764,0.0
-0.052427268317612206,0.06637073354372186,-0.03272483142910378,0.0
-0.052407419968535894,0.06649491983591554,-0.03256711752022714,0.0
-0.05237737922398796,0.06638494925319544,-0.032685671172818086,0.0
-0.05236289529358092,0.06635624961331482,-0.03277069720872607,0.0
-0.05238435296825802,0.06641016202094102,-0.03274038824324468,0.0
-0.052488690911375396,0.06642920570721694,-0.032614860846383674,0.0
-0.05247635274843607,0.06648606854511124,-0.032630149439591104,0.0
-0.05240420131733433,0.06649411517311515,-0.032843921523561664,0.0
-0.052409565736003604,0.06647292571937152,-0.032845530849162446,0.0
-0.05255360037727361,0.06641633110241069,-0.03262532146278876,0.0
-0.052495932876578916,0.0664184768698784,-0.03249416142632501,0.0
-0.05241197972440478,0.06647265749843806,-0.032687816940285795,0.0
-0.052461600597095565,0.06636536912505259,-0.03276694211565758,0.0
-0.05265230568078824,0.06647560792870616,-0.03261405618358328,0.0
-0.052678859553201146,0.06652388769672962,-0.032557461566622446,0.0
-0.05226499465286668,0.06632620886876689,-0.03280234727887479,0.0
-0.05215877916321506,0.06634793476437745,-0.03280181083700786,0.0
-0.05230951932782165,0.06644932227722672,-0.03264168293973004,0.0
-0.05241653948027366,0.0664206226373461,-0.032533858124477635,0.0
-0.05240473775920126,0.06646890240536957,-0.03261030109051479,0.0
-0.052406078863868576,0.06632942751996845,-0.032728586522172275,0.0
-0.052320784607027125,0.0663726110902561,-0.03261325152078289,0.0
-0.05247447520190182,0.06627980664727767,-0.032546196287416965,0.0
-0.052517122330322547,0.06640318827667097,-0.03249711185659311,0.0
-0.05227250483900366,0.066340156357307,-0.0327025690916263,0.0
-0.05225185182712696,0.06639621453240091,-0.03259796292757546,0.0
-0.052339828293303046,0.06640533404413868,-0.03248960167045613,0.0
-0.052339023630502655,0.0664538820330956,-0.03266609104467524,0.0
-0.052369600816917515,0.06635946826451639,-0.03284284863982781,0.0
-0.05245730906216014,0.06633050040370231,-0.032613519741716356,0.0
-0.052395886468396956,0.06638092593919348,-0.03242415576269099,0.0
-0.05229718116488232,0.06641364889307605,-0.03246868043764596,0.0
-0.05234277872357115,0.0663224537756984,-0.032670382579610656,0.0
-0.05231300619995668,0.0662980456707532,-0.03266850503307641,0.0
-0.05241734414307405,0.06637475685772382,-0.03257435948543066,0.0
-0.05257881314501919,0.06638629035786275,-0.032538149659413054,0.0
-0.05245060353882355,0.06628758505434812,-0.03265911730040518,0.0
-0.05227062729246942,0.0662508387864636,-0.03268969448682004,0.0
-0.052222347524445954,0.06632754997343421,-0.032568995066761385,0.0
-0.0522810879088745,0.06632915929903499,-0.03254834205488468,0.0
-0.05236799149131673,0.06626746848433834,-0.03268003853321535,0.0
-0.052422708561743324,0.06628275707754577,-0.03268674405655194,0.0
-0.052292353188079975,0.06628302529847924,-0.032564703531825966,0.0
-0.05233956007236958,0.06640131073013672,-0.03251883775220367,0.0
-0.05243611960841651,0.06631440714769449,-0.03261405618358328,0.0
-0.052507466376717854,0.06630045965915438,-0.03266474994000792,0.0
-0.05236343173544785,0.06639058189279817,-0.03275299462711747,0.0
-0.052338218967702264,0.06634069279917393,-0.032585892985569596,0.0
-0.052317029513958634,0.06633264617117002,-0.032399747657745795,0.0
-0.05230361846728545,0.06631467536862795,-0.032651338893334735,0.0
-0.05231246975808975,0.06629321769395086,-0.032621566369720266,0.0
-0.05247367053910143,0.0663195033454303,-0.032515619101002105,0.0
-0.052452749306291256,0.06637609796239113,-0.032562557764358256,0.0
-0.052306300676620086,0.06631601647329527,-0.032754872173651715,0.0
-0.05230495957195277,0.06630528763595672,-0.032633904532659595,0.0
-0.052466696794831374,0.06637797550892538,-0.0325008669496616,0.0
-0.05245596795749282,0.06638897256719739,-0.032548610275818145,0.0
-0.052382743642657235,0.06635651783424829,-0.03266287239347367,0.0
-0.052392131375328464,0.06638950900906432,-0.03264972956773395,0.0
-0.052538848225933105,0.06637207464838918,-0.032543245857148864,0.0
-0.05258498222648886,0.0664096255790741,-0.03251105934513322,0.0
-0.05231756595582556,0.06628248885661231,-0.032689158044953114,0.0
-0.05225480225739506,0.06631923512449683,-0.03267601521921339,0.0
-0.05239320425906232,0.06632808641530114,-0.03251964241500406,0.0
-0.05249566465564545,0.06641069846280795,-0.032461706693375905,0.0
-0.05236048130517975,0.06634713010157706,-0.03262210281158719,0.0
-0.05241734414307405,0.06635732249704868,-0.03275594505738557,0.0
-0.05243209629441455,0.06638146238106041,-0.032496038972859256,0.0
-0.05243907003868461,0.066340156357307,-0.032351736110655796,0.0
-0.05241358905000556,0.06632969574090192,-0.032506767810197804,0.0
-0.052488690911375396,0.06635356740398018,-0.03258186967156764,0.0
-0.05254072577246735,0.06629616812421896,-0.03252420217087294,0.0
-0.0526260200293088,0.06624976590272974,-0.03248075037965183,0.0
-0.05244228868988617,0.06633586482237158,-0.03255826622942284,0.0
-0.0522242250709802,0.06636992888092147,-0.03264436514906468,0.0
-0.052350020688774666,0.06621141030924443,-0.03266850503307641,0.0
-0.0525780084822188,0.0663549085086475,-0.032398942994945404,0.0
-0.052587664435823495,0.06627792910074343,-0.03245419650723892,0.0
-0.052266067536600534,0.06619934036723857,-0.03270444663816054,0.0
-0.052338218967702264,0.06620175435563974,-0.03269935044042473,0.0
-0.052451139980690474,0.06629965499635398,-0.032482091484319145,0.0
-0.052527851167661094,0.06630716518249097,-0.032506767810197804,0.0
-0.05247662096936953,0.06624815657712896,-0.03263444097452652,0.0
-0.05236906437505059,0.06612879826173762,-0.03274494799911356,0.0
-0.05245650439935975,0.06624574258872779,-0.03257650525289837,0.0
-0.05248627692297422,0.06627712443794304,-0.03249898940312736,0.0
-0.05240259199173355,0.06620175435563974,-0.0326575079748044,0.0
-0.05244443445735388,0.06616715385522293,-0.03278705868566736,0.0
-0.052512562574453664,0.06625217989113091,-0.03255021960141893,0.0
-0.052581227133420366,0.06610358549399203,-0.03242549686735831,0.0
-0.05250263839991551,0.06616125299468673,-0.03258777053210384,0.0
-0.05240634708480204,0.06619638993697047,-0.03267494233547954,0.0
-0.05248252182990573,0.06617949201816226,-0.032563094206225184,0.0
-0.05255064994700551,0.06622964933271996,-0.0325400272059473,0.0
-0.05253482491193115,0.06621865227444795,-0.032538149659413054,0.0
-0.05255360037727361,0.06623984172819158,-0.032539758985013836,0.0
-0.05243343739908187,0.06618110134376304,-0.032567653962094066,0.0
-0.05246052771336171,0.06625942185633443,-0.03245258718163814,0.0
-0.05255091816793897,0.06607971383091377,-0.032571140834229094,0.0
-0.05242968230601338,0.06623018577458689,-0.03261593373011753,0.0
-0.05251578122565523,0.06621543362324639,-0.03259876759037585,0.0
-0.052675104460132655,0.06620819165804287,-0.032571945497029485,0.0
-0.052554136819140534,0.06617117716922488,-0.03251803308940328,0.0
-0.052442556910819636,0.06620926454177672,-0.03261191041611557,0.0
-0.05273008975149271,0.06610841347079438,-0.03261217863704904,0.0
-0.05254018933060042,0.06618673398336578,-0.03249255210072423,0.0
-0.05242834120134606,0.06623796418165734,-0.03258401543903535,0.0
-0.05235592154931087,0.06635008053184516,-0.03260788710211362,0.0
-0.05234465627010539,0.06626424983313678,-0.03264946134680049,0.0
-0.05246562391109752,0.066118605866266,-0.03259581716010775,0.0
-0.0524760845275026,0.06621275141391175,-0.03261459262545021,0.0
-0.052408224631336285,0.06626103118193521,-0.03266984613774373,0.0
-0.052391863154395,0.06617654158789416,-0.03260922820678094,0.0
-0.052493787109111206,0.06622133448378259,-0.03259581716010775,0.0
-0.05249190956257696,0.06629402235675125,-0.03255933911315669,0.0
-0.052459186608694384,0.06618190600656343,-0.032533858124477635,0.0
-0.052440947585218854,0.06605315995850086,-0.03269774111482395,0.0
-0.052560842342477126,0.06616205765748712,-0.03254753739208429,0.0
-0.05251604944658869,0.06626398161220332,-0.03244078546056574,0.0
-0.05245435863189204,0.06629375413581778,-0.03259984047410971,0.0
-0.05238032965425606,0.06621677472791371,-0.03253493100821149,0.0
-0.05248734980670808,0.06616205765748712,-0.03244293122803345,0.0
-0.05258739621489003,0.06633103684556924,-0.03233001021504524,0.0
-0.05262789757584305,0.06619048907643427,-0.03247511774004909,0.0
-0.05247796207403685,0.0661422093084108,-0.032582137892501105,0.0
-0.052608049226766734,0.06617466404135991,-0.032520715298737915,0.0
-0.05263621242478042,0.06628651217061426,-0.032397601890278085,0.0
-0.052408224631336285,0.06624279215845968,-0.032456610495640095,0.0
-0.052479034957770704,0.06618914797176695,-0.03264516981186507,0.0
-0.05251739055125601,0.06608400536584919,-0.03255504757822127,0.0
-0.05245033531789008,0.06632728175250074,-0.032294068609961105,0.0
-0.05248010784150456,0.06637770728799192,-0.03239706544841116,0.0
-0.05252329141179221,0.06633801058983929,-0.03250274449619585,0.0
-0.05247501164376875,0.06625995829820136,-0.032509718240465904,0.0
-0.05247823029497031,0.06628570750781387,-0.03239357857627613,0.0
-0.0526112678779683,0.06619934036723857,-0.03246573000737786,0.0
-0.05254501730740277,0.0663431067875751,-0.032471094426047134,0.0
-0.052428609422279525,0.06630582407782365,-0.032539758985013836,0.0
-0.05264318616905048,0.06623286798392153,-0.03247377663538177,0.0
-0.05262226493624031,0.06632808641530114,-0.032361928506127416,0.0
-0.052515513004721764,0.06624815657712896,-0.03252339750807255,0.0
-0.05243424206188226,0.06630528763595672,-0.03264651091653239,0.0
-0.052487081585774614,0.0661998768091055,-0.032514814438201714,0.0
-0.052641576843449694,0.06626076296100175,-0.03228280333075563,0.0
-0.05264989169238707,0.06634552077597627,-0.03235334543625658,0.0
-0.05243933825961807,0.06629429057768471,-0.03248396903085339,0.0
-0.05250988036511903,0.06631387070582756,-0.032413695146285906,0.0
-0.052562988109944836,0.06632942751996845,-0.032318208493972836,0.0
-0.05238730339852612,0.06633157328743616,-0.032427374413892554,0.0
-0.052398836898665056,0.0662677367052718,-0.03264651091653239,0.0
-0.05257586271475109,0.0661931712857689,-0.03247377663538177,0.0
-0.0525004926324478,0.06611806942439907,-0.032291922842493395,0.0
-0.05248466759737344,0.06630367831035594,-0.03234315304078496,0.0
-0.052423513224543715,0.06632057622916415,-0.03248960167045613,0.0
-0.052460259492428246,0.06623072221645382,-0.032479945716851435,0.0
-0.05259222419169238,0.06628570750781387,-0.03233403352904719,0.0
-0.05265015991332053,0.0662677367052718,-0.03238928704134071,0.0
-0.05256781608674718,0.06617037250642449,-0.0325703361714287,0.0
-0.05242404966641064,0.06619665815790393,-0.032496038972859256,0.0
-0.05249673753937931,0.06629321769395086,-0.03234047083145032,0.0
-0.052469647225099475,0.06632647708970035,-0.03239357857627613,0.0
-0.05257854492408573,0.06623286798392153,-0.03250140339152853,0.0
-0.052506125272050536,0.06623742773979041,-0.03251964241500406,0.0
-0.05249915152778048,0.0663127978220937,-0.0323841908436049,0.0
-0.05245140820162394,0.06629482701955164,-0.03234315304078496,0.0
-0.05241385727093902,0.06622804000711918,-0.03245017319323697,0.0
-0.05242485432921103,0.06617010428549103,-0.03255182892701971,0.0
-0.052499419748713944,0.06613550378507421,-0.032471899088847525,0.0
-0.05249325066724428,0.06618297889029728,-0.032444272332700766,0.0
-0.052589810203291204,0.06631038383369253,-0.03249335676352462,0.0
-0.05250853926045171,0.0662655909378041,-0.03260493667184552,0.0
-0.05224165943165534,0.06624145105379237,-0.0324499049723035,0.0
-0.052388644503193436,0.06628812149621505,-0.03232893733131138,0.0
-0.052551991051672825,0.06628490284501348,-0.032361123843327025,0.0
-0.05245248108535779,0.06624091461192544,-0.032582942555301496,0.0
-0.05246642857389791,0.06624601080966125,-0.03249469786819194,0.0
-0.05250210195804858,0.06617976023909572,-0.03236514715732898,0.0
-0.05256567031927947,0.0662382324025908,-0.032420937111489426,0.0
-0.05243343739908187,0.06630716518249097,-0.032498184740326966,0.0
-0.05242887764321299,0.06638173060199387,-0.032479141054051044,0.0
-0.052388644503193436,0.06632084445009762,-0.03237024335506479,0.0
-0.05235618977024433,0.06630931094995868,-0.03240752606481624,0.0
-0.05234358338637154,0.06628731683341466,-0.03251240044980054,0.0
-0.05233929185143612,0.06628356174034616,-0.03254887849675161,0.0
-0.05245087175975701,0.06628382996127963,-0.03245526939097278,0.0
-0.05248654514390769,0.06630126432195477,-0.032346639912919986,0.0
-0.052443093352686564,0.06633345083397041,-0.032381508634270265,0.0
-0.05238140253798992,0.06632325843849879,-0.03239277391347574,0.0
-0.05252034098152411,0.06630716518249097,-0.03234020261051686,0.0
-0.05252463251645953,0.0663755615205242,-0.03228414443542295,0.0
-0.0524760845275026,0.06635946826451639,-0.03241825490215479,0.0
-0.05239695935213081,0.06626907780993913,-0.0325917938461058,0.0
-0.05246911078323255,0.06631413892676102,-0.03251883775220367,0.0
-0.05256164700527752,0.06629831389168667,-0.03225732234207658,0.0
-0.052554405040074,0.06635142163651248,-0.03242710619295909,0.0
-0.05245355396909165,0.06624842479806242,-0.03240752606481624,0.0
-0.05244014292241846,0.06616044833188633,-0.032403502750814286,0.0
-0.052457040841226675,0.06643403368401929,-0.03231418517997088,0.0
-0.05254018933060042,0.06624976590272974,-0.03241476803001976,0.0
-0.05240044622426584,0.06627980664727767,-0.03248182326338568,0.0
-0.052412516166271704,0.06628222063567885,-0.032469753321379816,0.0
-0.05238649873572573,0.06633506015957119,-0.0323361792965149,0.0
-0.05242002635240869,0.06630796984529136,-0.03244185834429959,0.0
-0.05237845210772182,0.06617225005295874,-0.03249362498445808,0.0
-0.05226579931566707,0.06632594064783343,-0.03239787011121155,0.0
-0.05235323933997623,0.06648687320791163,-0.032260540993278145,0.0
-0.05250666171391746,0.06634552077597627,-0.03230157879609809,0.0
-0.052321589269827516,0.06635759071798214,-0.032284680877289876,0.0
-0.052355653328377404,0.06630528763595672,-0.0323900917041411,0.0
-0.052470451887899866,0.06634873942717784,-0.032274488481818256,0.0
-0.05249995619058087,0.06633345083397041,-0.03230774787756775,0.0
-0.05241063861973746,0.06626934603087259,-0.032329741994111774,0.0
-0.052389180945060364,0.06627819732167689,-0.03239277391347574,0.0
-0.05246106415522864,0.06626129940286868,-0.03231767205210591,0.0
-0.05254528552833623,0.06642330484668074,-0.03228146222608831,0.0
-0.05252892405139495,0.06634552077597627,-0.03238794593667339,0.0
-0.05255306393540668,0.0664037247185379,-0.032369170471330935,0.0
-0.05272123846068841,0.06634820298531091,-0.03226322320261278,0.0
-0.05269092949520701,0.06636134581105063,-0.03225142148154038,0.0
-0.0524701836669664,0.06640050606733633,-0.0323753395528006,0.0
-0.05230013159515042,0.06629187658928354,-0.032489333449522664,0.0
-0.05238944916599383,0.0662685413680722,-0.0323605874014601,0.0
-0.05250076085338126,0.06645254092842828,-0.032180342934172504,0.0
-0.05256969363328143,0.06647855835897426,-0.032238010434867195,0.0
-0.05243853359681768,0.06632996396183538,-0.0323900917041411,0.0
-0.05247232943443411,0.06625808075166711,-0.03239196925067535,0.0
-0.05263165266891154,0.06631199315929331,-0.032161567468830046,0.0
-0.05256781608674718,0.06620041325097242,-0.03223237779526446,0.0
-0.05241090684067092,0.06622535779778455,-0.032511864007933614,0.0
-0.05237013725878444,0.06637904839265923,-0.032284680877289876,0.0
-0.05247662096936953,0.06637743906705845,-0.03202852988583206,0.0
-0.05248654514390769,0.06634820298531091,-0.032112751258939656,0.0
-0.05242297678267679,0.06623742773979041,-0.032272879156217474,0.0
-0.05239052204972768,0.06628356174034616,-0.03226188209794546,0.0
-0.052457040841226675,0.0663372059270389,-0.03214869286402379,0.0
-0.052446848445755055,0.06631735757796259,-0.032126430526546304,0.0
-0.052398836898665056,0.06633291439210348,-0.03224847105127228,0.0
-0.05251953631872372,0.06625352099579823,-0.032343689482651886,0.0
-0.052463746364563274,0.06622884466991957,-0.032366220041062835,0.0
-0.052478498515903776,0.06633264617117002,-0.032167200108432784,0.0
-0.05253562957473154,0.06638575391599583,-0.032200191283248816,0.0
-0.05252811938859456,0.06634203390384125,-0.03233215598251295,0.0
-0.05244443445735388,0.06631387070582756,-0.03222459938819401,0.0
-0.05248734980670808,0.06632594064783343,-0.032168809434033566,0.0
-0.05228537944380992,0.06626907780993913,-0.03222379472539362,0.0
-0.052303350246351986,0.06625352099579823,-0.03232384113357557,0.0
-0.05244550734108774,0.06627766087980996,-0.03223479178366563,0.0
-0.0524369242712169,0.06633613304330505,-0.03210524107280267,0.0
-0.05230361846728545,0.0663136024848941,-0.032235060004599095,0.0
-0.052220201756978245,0.06629053548461622,-0.03240082054147965,0.0
-0.05227545526927176,0.0662478883561955,-0.03231498984277127,0.0
-0.052330977002498745,0.0663755615205242,-0.0320998766541334,0.0
-0.052398032235864665,0.06633613304330505,-0.032205823922851554,0.0
-0.05231461552555746,0.06624332860032661,-0.032340739052383785,0.0
-0.0522124233499078,0.06630341008942248,-0.032353077215323114,0.0
-0.0522928896299469,0.06633210972930309,-0.03221843030672435,0.0
-0.05231917528142634,0.06618700220429924,-0.03226295498167932,0.0
-0.052215105559242435,0.06635249452024633,-0.03236139206426049,0.0
-0.0522419276525888,0.06633613304330505,-0.03254673272928389,0.0
-0.052439606480551536,0.06626022651913482,-0.03211516524734083,0.0
-0.052586323331156176,0.0663165529151622,-0.0321057775146696,0.0
-0.05227465060647137,0.06630045965915438,-0.03231472162183781,0.0
-0.052148050325876515,0.06622991755365343,-0.032380703971469874,0.0
-0.05226660397846746,0.06621543362324639,-0.03232598690104328,0.0
-0.05236718682851634,0.06623662307699002,-0.03217256452710206,0.0
-0.052340364735169974,0.06608507824958304,-0.032315258063704735,0.0
-0.052296108281148466,0.0661127050057298,-0.03235039500598848,0.0
-0.05240259199173355,0.06631467536862795,-0.03219107177151105,0.0
-0.05241680770120712,0.06626022651913482,-0.03214922930589072,0.0
-0.05221617844297629,0.06624922946086281,-0.03224659350473803,0.0
-0.05223200347805065,0.06617439582042645,-0.032403502750814286,0.0
-0.05223656323391953,0.06614784194801354,-0.03235415009905697,0.0
-0.05235592154931087,0.06620845987897633,-0.032291922842493395,0.0
-0.05238971738692729,0.06615266992481589,-0.03236005095959317,0.0
-0.05228242901354182,0.06617627336696069,-0.032530907694209535,0.0
-0.052249437838725786,0.0662108738673775,-0.03242764263482602,0.0
-0.05241063861973746,0.06622482135591762,-0.03219375398084569,0.0
-0.05257559449381763,0.0662079234371094,-0.0323214271451744,0.0
-0.052468842562299084,0.06614167286654388,-0.03244963675137004,0.0
-0.052102989209054616,0.06614757372708008,-0.03253573567101188,0.0
-0.05222502973378059,0.06613684488974153,-0.03232303647077518,0.0
-0.052379793212389135,0.06626505449593717,-0.03215164329429189,0.0
-0.05237308768905254,0.06620094969283935,-0.03239867477401194,0.0
-0.0522330763617845,0.066137113110675,-0.03243300705349529,0.0
-0.05237845210772182,0.06612933470360455,-0.032204482818184235,0.0
-0.052413320829072095,0.06617868735536186,-0.03219777729484764,0.0
-0.05230495957195277,0.06614623262241276,-0.032313112296237026,0.0
-0.05231032399062204,0.06613952709907617,-0.03238258151800412,0.0
-0.05242297678267679,0.0662449379259274,-0.03226992872594937,0.0
-0.052469647225099475,0.0662470836933951,-0.03220823791125273,0.0
-0.052406078863868576,0.06624949768179628,-0.03229514149369496,0.0
-0.05233741430490187,0.06618190600656343,-0.032310966528769317,0.0
-0.05247876673683724,0.06616929962269064,-0.03219911839951496,0.0
-0.05257988602875305,0.06617117716922488,-0.03211301947987312,0.0
-0.05237067370065137,0.0661939759485693,-0.032216820981123565,0.0
-0.052261776001665115,0.06625942185633443,-0.032328400889444456,0.0
-0.05233848718863573,0.06620845987897633,-0.032309625424102,0.0
-0.05239669113119735,0.06620926454177672,-0.03210845972400424,0.0
-0.05239052204972768,0.06635705427611521,-0.03226000455141122,0.0
-0.05233124522343221,0.06630636051969058,-0.03230238345889848,0.0
-0.052454090410958575,0.06614784194801354,-0.03221118834152083,0.0
-0.052565133877412545,0.06620819165804287,-0.03218892600404334,0.0
-0.05240339665453394,0.06631762579889605,-0.03214949752682418,0.0
-0.05236906437505059,0.06617493226229337,-0.032306406772900434,0.0
-0.0524575772830936,0.06618002846002918,-0.03231713561023898,0.0
-0.05228269723447528,0.06631172493835985,-0.03216907765496703,0.0
-0.05223817255952031,0.06634471611317588,-0.03214922930589072,0.0
-0.05223200347805065,0.06624306037939315,-0.032361928506127416,0.0
-0.052254534036461596,0.06622964933271996,-0.032294068609961105,0.0
-0.052370405479717906,0.06623340442578846,-0.03222433116726055,0.0
-0.05237228302625215,0.06625915363540097,-0.032189998887777196,0.0
-0.05226526287380014,0.06628248885661231,-0.03226697829568127,0.0
-0.05227679637393908,0.06607032609824254,-0.03237614421560099,0.0
-0.05234251050263768,0.0661577661225517,-0.03227422026088479,0.0
-0.05238810806132651,0.06629643634515242,-0.032165859003765465,0.0
-0.05239132671252807,0.06629026726368276,-0.032280925784221384,0.0
-0.05240768818946936,0.06608695579611729,-0.032412085820685124,0.0
-0.052363699956381314,0.06619558527417008,-0.032205823922851554,0.0
-0.05229128030434612,0.06630501941502326,-0.032117579235742,0.0
-0.0522094729196397,0.06628570750781387,-0.03222459938819401,0.0
-0.05214563633747534,0.06629268125208393,-0.03235441831999043,0.0
-0.052238440780453775,0.06628356174034616,-0.03239921121587887,0.0
-0.05244014292241846,0.06620765521617594,-0.032254103690875016,0.0
-0.052413320829072095,0.06628785327528158,-0.03214413310815491,0.0
-0.052250778943393104,0.06616500808775522,-0.03236273316892781,0.0
-0.052336877863034946,0.0661489148317474,-0.03222299006259323,0.0
-0.052320784607027125,0.06626532271687063,-0.03213930513135256,0.0
-0.05230227736261813,0.06630341008942248,-0.03209773088666569,0.0
-0.05213839437227182,0.06619799926257125,-0.032286826644757585,0.0
-0.05216897155868668,0.06614113642467695,-0.03230828431943468,0.0
-0.052371746584385225,0.06616098477375326,-0.032188389562176414,0.0
-0.05237094192158483,0.06621811583258103,-0.03218463446910792,0.0
-0.052234149245518356,0.06616152121562019,-0.032389555262274175,0.0
-0.05224729207125808,0.06634257034570817,-0.03228789952849144,0.0
-0.052351361793441985,0.0663136024848941,-0.032132331387082505,0.0
-0.05240473775920126,0.0663077016243579,-0.032178197166704794,0.0
-0.05232963589783143,0.06627551511234225,-0.03226831940034859,0.0
-0.05229718116488232,0.066214628960446,-0.032355222982790824,0.0
-0.05242968230601338,0.06623045399552036,-0.032228622702195966,0.0
-0.05239964156146545,0.06636697845065337,-0.03212535764281245,0.0
-0.052311396874355896,0.06632728175250074,-0.03225088503967345,0.0
-0.0522692861878021,0.06626505449593717,-0.032393846797209594,0.0
-0.052481985388038804,0.0661931712857689,-0.03226027277234468,0.0
-0.05256835252861411,0.06623045399552036,-0.032044891362773345,0.0
-0.052328831235031036,0.06628785327528158,-0.03221574809738971,0.0
-0.052290207420612266,0.06625352099579823,-0.03235790519212546,0.0
-0.052346265595706175,0.06618029668096265,-0.032249007493139206,0.0
-0.05244497089922081,0.06615642501788438,-0.032128039852147086,0.0
-0.05249110489977657,0.06616983606455756,-0.0322645643072801,0.0
-0.052662766297193325,0.06607837272624645,-0.0323243775754425,0.0
-0.05254421264460238,0.06627578333327572,-0.032296214377428814,0.0
-0.052378988549588744,0.06620711877430902,-0.032152716178025745,0.0
-0.0522692861878021,0.06626290872846946,-0.032141719119753734,0.0
-0.0522840383391426,0.06621999337911527,-0.03234905390132116,0.0
-0.05234948424690774,0.06618539287869846,-0.032288167749424904,0.0
-0.05245569973655936,0.06623715951885695,-0.03217578317830362,0.0
-0.05244416623642042,0.06624896123992935,-0.03219482686457954,0.0
-0.052591419528891986,0.066185124657765,-0.03234824923852077,0.0
-0.0525181952140564,0.06622857644898611,-0.03231177119156971,0.0
-0.05242673187574528,0.06622026160004874,-0.03222218539979284,0.0
-0.0524428251317531,0.06623367264672192,-0.03221145656245429,0.0
-0.052355116886510476,0.06621275141391175,-0.032321695366107864,0.0
-0.05232775835129718,0.06612799359893723,-0.03238311795987105,0.0
-0.05231917528142634,0.0661636669830879,-0.0322675147375482,0.0
-0.05239052204972768,0.06625137522833052,-0.03236273316892781,0.0
-0.05237201480531869,0.06619478061136969,-0.03235656408745814,0.0
-0.05227250483900366,0.06621945693724834,-0.0323007741332977,0.0
-0.05235806731677858,0.06615454747135013,-0.03229675081929574,0.0
-0.05247420698096836,0.06627068713553991,-0.03213984157321949,0.0
-0.05228323367634221,0.06613899065720924,-0.0323302784359787,0.0
-0.05217165376802132,0.06615830256441863,-0.03242710619295909,0.0
-0.05228913453687841,0.06614542795961237,-0.03235656408745814,0.0
-0.052343315165438074,0.0661725182738922,-0.032168004771233175,0.0
-0.05232641724662986,0.06611994697093332,-0.03225678590020965,0.0
-0.052271163734336344,0.06606442523770634,-0.03235039500598848,0.0
-0.052439606480551536,0.06613228513387265,-0.03220850613218619,0.0
-0.052343851607305,0.06620175435563974,-0.032153520840826136,0.0
-0.05226794508313478,0.06603197050475723,-0.03213125850334865,0.0
-0.05221617844297629,0.06622830822805265,-0.03219080355057759,0.0
-0.052220201756978245,0.06611780120346561,-0.03222084429512552,0.0
-0.05231112865342243,0.06607247186571025,-0.032088611374927925,0.0
-0.05233714608396841,0.06608159137744801,-0.03218892600404334,0.0
-0.05224380519912305,0.06616581275055561,-0.032314453400904344,0.0
-0.0522330763617845,0.06620711877430902,-0.03220716502751887,0.0
-0.05231246975808975,0.06617278649482566,-0.03223452356273217,0.0
-0.052423513224543715,0.06615910722721902,-0.03212240721254435,0.0
-0.052325076141962544,0.06620255901844013,-0.03228655842382412,0.0
-0.0521732630936221,0.06611190034292941,-0.032269392284082446,0.0
-0.052325076141962544,0.0660676438889079,-0.03212482120094552,0.0
-0.052451139980690474,0.06616098477375326,-0.032035503630102116,0.0
-0.05242324500361025,0.06618351533216421,-0.03215325261989267,0.0
-0.05228591588567685,0.06619478061136969,-0.03218382980630753,0.0
-0.052328026572230645,0.066185124657765,-0.03215325261989267,0.0
-0.052378988549588744,0.06626451805407024,-0.032074127444520886,0.0
-0.052400982666132766,0.06620390012310745,-0.032178197166704794,0.0
-0.052520609202457574,0.06615213348294896,-0.03231418517997088,0.0
-0.052422172119876397,0.0661548156922836,-0.032228622702195966,0.0
-0.05243343739908187,0.06619129373923466,-0.032078418979456305,0.0
-0.05237523345652025,0.06618244244843036,-0.03215808059669502,0.0
-0.05239159493346154,0.06617654158789416,-0.03227395203995133,0.0
-0.052527851167661094,0.06610599948239321,-0.03227529314461865,0.0
-0.05252758294672763,0.06629241303115047,-0.03211060549147195,0.0
-0.052365309281982096,0.06633532838050465,-0.03217631962017055,0.0
-0.05236048130517975,0.06621543362324639,-0.03225437191180848,0.0
-0.052416271259340196,0.06617037250642449,-0.032168809434033566,0.0
-0.05238328008452416,0.06624627903059471,-0.03204864645584184,0.0
-0.05245033531789008,0.06619478061136969,-0.032094512235464126,0.0
-0.05250263839991551,0.06610197616839125,-0.032347981017587304,0.0
-0.05243772893401729,0.06620229079750667,-0.032230768469663676,0.0
-0.05246911078323255,0.0661341626804069,-0.03193653010565401,0.0
-0.052446043782954664,0.06624922946086281,-0.03187966726775971,0.0
-0.05239856867773159,0.06623876884445773,-0.03202423835089664,0.0
-0.05244416623642042,0.06610760880799399,-0.032121334328810494,0.0
-0.05256862074954757,0.0661607165528198,-0.0319979526994172,0.0
-0.052460795934295174,0.06621918871631488,-0.03189951561683602,0.0
-0.052366650386649415,0.06615562035508399,-0.032000366687818374,0.0
-0.05241090684067092,0.06609339309852041,-0.03209853554946608,0.0
-0.052551186388872434,0.06616581275055561,-0.03203013921143284,0.0
-0.05262816579677651,0.06615749790161823,-0.03197381281540546,0.0
-0.05251283079538713,0.06614837838988047,-0.03191587709377731,0.0
-0.05231676129302517,0.06612423850586874,-0.03191775464031155,0.0
-0.05254662663300355,0.06615910722721902,-0.031903270709904515,0.0
-0.05251470834192137,0.06612128807560064,-0.03181207559252686,0.0
-0.05255386859820707,0.06619370772763583,-0.03186518333735267,0.0
-0.0524007144451993,0.0660292882954226,-0.03209719444479876,0.0
-0.05233044056063182,0.06617359115762605,-0.03191453598910999,0.0
-0.0524066153057355,0.0662958999032855,-0.03174555680102787,0.0
-0.052460259492428246,0.06624440148406047,-0.03183004639506893,0.0
-0.052387839840393045,0.0661607165528198,-0.031958792443131497,0.0
-0.05240420131733433,0.06611190034292941,-0.03200734043208843,0.0
-0.052457845504027066,0.06632003978729722,-0.03181931755773038,0.0
-0.05242968230601338,0.06632969574090192,-0.031834069709070885,0.0
-0.05246696501576484,0.06622616246058494,-0.03203201675796709,0.0
-0.05242297678267679,0.06623984172819158,-0.03198373698994362,0.0
-0.05241439371280595,0.0662803430891446,-0.031936798326587475,0.0
-0.0524672332366983,0.0663157482523618,-0.03196576618740155,0.0
-0.05238810806132651,0.066310652054626,-0.03200278067621955,0.0
-0.05230227736261813,0.06631199315929331,-0.03194886826859334,0.0
-0.05239052204972768,0.06625620320513287,-0.03193813943125479,0.0
-0.052533752028197295,0.06628168419381192,-0.03186920665135463,0.0
-0.052630579785177684,0.0662685413680722,-0.03196281575713345,0.0
-0.052487886248575005,0.06628517106594695,-0.03203496718823519,0.0
-0.0522928896299469,0.06628382996127963,-0.031955842012863396,0.0
-0.052328831235031036,0.06640989380000756,-0.03187322996535658,0.0
-0.052389180945060364,0.06633076862463577,-0.03205910707224692,0.0
-0.05232480792102908,0.06626103118193521,-0.03207868720038977,0.0
-0.05234358338637154,0.06624601080966125,-0.03197220348980468,0.0
-0.0524007144451993,0.06626290872846946,-0.03185928247681647,0.0
-0.052608853889567125,0.06635893182264946,-0.03191882752404541,0.0
-0.05260134370343014,0.06629455879861818,-0.032050792223309546,0.0
-0.05229637650208193,0.06627176001927376,-0.03204971933957569,0.0
-0.05214134480253992,0.0663283546362346,-0.03181019804599262,0.0
-0.05221483733830897,0.06625030234459667,-0.03192606948924893,0.0
-0.052446043782954664,0.06618351533216421,-0.03214225556162066,0.0
-0.052422172119876397,0.06623420908858885,-0.0319912471760806,0.0
-0.0522840383391426,0.06627095535647337,-0.0318745710700239,0.0
-0.05240205554986662,0.06628570750781387,-0.031866792662953454,0.0
-0.05238810806132651,0.06623313620485499,-0.03204542780464027,0.0
-0.05239454536372964,0.06620845987897633,-0.0320910253633291,0.0
-0.052514171900054446,0.06628087953101153,-0.031945649617391776,0.0
-0.05245087175975701,0.06625700786793326,-0.03194350384992407,0.0
-0.052238440780453775,0.06626505449593717,-0.032068226583984685,0.0
-0.05226660397846746,0.066166617413356,-0.032101754200667645,0.0
-0.05235323933997623,0.06620443656497438,-0.031988564966745965,0.0
-0.05238837628225997,0.06626156762380214,-0.03196362041993384,0.0
-0.052360749526113214,0.06632781819436767,-0.03216532256189854,0.0
-0.05230281380448506,0.0661872704252327,-0.03206500793278312,0.0
-0.05225828912953009,0.06619478061136969,-0.0320666172583839,0.0
-0.052317834176759025,0.06623689129792348,-0.031955037350063005,0.0
-0.052505320609250145,0.06625405743766516,-0.031994465827282166,0.0
-0.05226445821099975,0.06615910722721902,-0.032165054340965074,0.0
-0.05208340908091177,0.06608668757518382,-0.03225705412114312,0.0
-0.05221564200110936,0.06628946260088237,-0.03201806926942698,0.0
-0.05230147269981774,0.06633640126423851,-0.031937602989387866,0.0
-0.05225828912953009,0.06615749790161823,-0.03222513583006094,0.0
-0.052142149465340314,0.06616715385522293,-0.032203678155383844,0.0
-0.05217594530295674,0.06625647142606633,-0.03202343368809625,0.0
-0.052210009361506625,0.06617600514602723,-0.0319882967458125,0.0
-0.05216012026788238,0.06616849495989024,-0.032160762806029655,0.0
-0.052246487408457686,0.0661843199949646,-0.03222352650446016,0.0
-0.052451944643490865,0.06624279215845968,-0.03216317679443083,0.0
-0.05244711666668852,0.06631413892676102,-0.03196415686180077,0.0
-0.052082604418111376,0.06620390012310745,-0.03210953260773809,0.0
-0.051958686346851156,0.06622589423965147,-0.03221306588805507,0.0
-0.05213973547693914,0.06625432565859862,-0.032128039852147086,0.0
-0.05219928052416808,0.06619934036723857,-0.03202799344396513,0.0
-0.05213919903507221,0.06619531705323661,-0.03224203374886915,0.0
-0.05212444688373171,0.0661304075873384,-0.03228199866795524,0.0
-0.052189624570563385,0.0662803430891446,-0.03191990040777926,0.0
-0.052314347304624,0.06625754430980019,-0.03194511317552485,0.0
-0.052266335757534,0.06623152687925421,-0.03206473971184966,0.0
-0.052261776001665115,0.066118605866266,-0.03218946244591027,0.0
-0.05238167075892338,0.06606871677264176,-0.032213870550855464,0.0
-0.05223093059431679,0.0662500341236632,-0.03204864645584184,0.0
-0.052202767396303106,0.0662832935194127,-0.0320282616648986,0.0
-0.052183723710027184,0.06615937544815248,-0.032218966748591274,0.0
-0.052164948244684727,0.06621248319297829,-0.03219777729484764,0.0
-0.05225936201326394,0.06636134581105063,-0.03205669308384575,0.0
-0.052322930374494835,0.06634149746197432,-0.0321057775146696,0.0
-0.052317029513958634,0.06625217989113091,-0.03229809192396306,0.0
-0.05223790433858685,0.06622830822805265,-0.032140378015086415,0.0
-0.05219928052416808,0.06621677472791371,-0.03203818583943675,0.0
-0.052163338919083944,0.06622616246058494,-0.032103095305334964,0.0
-0.05217889573322484,0.06617090894829142,-0.03224659350473803,0.0
-0.05217245843082171,0.06624359682126008,-0.032213602329922,0.0
-0.05223817255952031,0.06621436073951253,-0.03201780104849351,0.0
-0.05223146703618372,0.06617144539015835,-0.03203282142076748,0.0
-0.05221108224524048,0.06621543362324639,-0.032100949537867254,0.0
-0.05211184049985892,0.06623501375138924,-0.03220823791125273,0.0
-0.0521311524070683,0.06630045965915438,-0.03211972500320971,0.0
-0.05219579365203305,0.0662057776696417,-0.032087806712127534,0.0
-0.052410370398803995,0.06626988247273952,-0.032142523782554125,0.0
-0.05237630634025411,0.0663077016243579,-0.03218275692257368,0.0
-0.05209547902291763,0.06628838971714851,-0.03208539272372636,0.0
-0.05225855735046355,0.06623474553045577,-0.032072518118920104,0.0
-0.05216950800055361,0.06623715951885695,-0.03218007471323904,0.0
-0.052087700615847186,0.06632138089196454,-0.03217578317830362,0.0
-0.05215877916321506,0.06619799926257125,-0.032027457002098206,0.0
-0.05227143195526981,0.06627685621700957,-0.03197488569913932,0.0
-0.05225507047832852,0.06631387070582756,-0.03205106044424301,0.0
-0.052205717826571206,0.06619156196016812,-0.032270733388749764,0.0
-0.05226794508313478,0.06620014503003896,-0.03217068698056781,0.0
-0.05228913453687841,0.06634739832251052,-0.03204140449063832,0.0
-0.05220330383817003,0.06633881525263968,-0.03202182436249547,0.0
-0.05204290771995875,0.06621436073951253,-0.032176856062037476,0.0
-0.05210889006959082,0.06624466970499393,-0.0321478882012234,0.0
-0.052261776001665115,0.06630528763595672,-0.03202048325782815,0.0
-0.05219740297763383,0.06627095535647337,-0.03204355025810603,0.0
-0.05216655757028551,0.06626720026340488,-0.03212777163121362,0.0
-0.05216012026788238,0.06621409251857907,-0.03209719444479876,0.0
-0.05224997428059271,0.06617385937855952,-0.032035503630102116,0.0
-0.05227438238553791,0.06628892615901544,-0.03197515392007278,0.0
-0.052181577942559475,0.06634713010157706,-0.03209048892146217,0.0
-0.05217192198895478,0.0661569614597513,-0.03212187077067742,0.0
-0.05229396251368076,0.06616903140175717,-0.03196978950140351,0.0
-0.05247930317870417,0.06628141597287845,-0.03186893843042116,0.0
-0.05231971172329327,0.06620443656497438,-0.03201753282756005,0.0
-0.05196968340512317,0.06618029668096265,-0.03223666933019988,0.0
-0.052002406359005736,0.0661577661225517,-0.03196415686180077,0.0
-0.05226874974593517,0.06619638993697047,-0.03178713104571474,0.0
-0.052255875141128914,0.0661548156922836,-0.03194377207085753,0.0
-0.05206597472023663,0.06615213348294896,-0.03205642486291228,0.0
-0.05217674996575713,0.06619048907643427,-0.03200278067621955,0.0
-0.05222368862911327,0.06621060564644404,-0.03201699638569312,0.0
-0.052187478803095676,0.06620094969283935,-0.03200734043208843,0.0
-0.052108085406790426,0.06622321203031684,-0.032049987560509155,0.0
-0.052121228232530147,0.06619531705323661,-0.032036844734769435,0.0
-0.05219659831483344,0.06619853570443818,-0.03195852422219803,0.0
-0.052229589489649474,0.06617305471575913,-0.031946990722059095,0.0
-0.05218479659376104,0.06613550378507421,-0.0320607163978477,0.0
-0.05216602112841858,0.0659686703644598,-0.03210041309600033,0.0
-0.05229771760674925,0.06617439582042645,-0.031947795384859486,0.0
-0.052355653328377404,0.0662950952404851,-0.031941894524323285,0.0
-0.052164143581884335,0.06619183018110159,-0.03209022070052871,0.0
-0.052065706499303165,0.06619960858817203,-0.03211731101480854,0.0
-0.05221564200110936,0.06622830822805265,-0.031994465827282166,0.0
-0.05244658022482159,0.06620524122777477,-0.03206152106064809,0.0
-0.0523497524678412,0.06612289740120142,-0.032187048457509096,0.0
-0.05214483167467495,0.06621355607671214,-0.03207680965385552,0.0
-0.05211586381386087,0.06612477494773566,-0.03209638978199837,0.0
-0.052171385547087855,0.06623045399552036,-0.03195825600126457,0.0
-0.052182382605359866,0.06628356174034616,-0.03209048892146217,0.0
-0.05231166509528936,0.06615025593641471,-0.03213876868948563,0.0
-0.05223790433858685,0.06616018011095287,-0.032036040071969044,0.0
-0.05205283189449691,0.06620711877430902,-0.03190890334950725,0.0
-0.05209360147638339,0.0661931712857689,-0.03205830240944653,0.0
-0.05207107091797244,0.06615508391321706,-0.03215942170136234,0.0
-0.052119618906929364,0.06614918305268086,-0.032065276153716585,0.0
-0.05225855735046355,0.06604511333049695,-0.03201994681596122,0.0
-0.0522751870483383,0.06618324711123075,-0.032031748537033625,0.0
-0.05219364788456534,0.066137113110675,-0.03221011545778697,0.0
-0.052238440780453775,0.06616044833188633,-0.03218436624817446,0.0
-0.052196866535766905,0.0661880750880331,-0.03195691489659725,0.0
-0.0521526100817454,0.06613308979667304,-0.03190005205870295,0.0
-0.052135712162937185,0.06606683922610751,-0.0321116783752058,0.0
-0.05221161868710741,0.0660196323418179,-0.03218141581790636,0.0
-0.05231756595582556,0.06604082179556153,-0.03196066998966574,0.0
-0.052317834176759025,0.06620094969283935,-0.03181529424372843,0.0
-0.052422172119876397,0.06622240736751644,-0.03204623246744066,0.0
-0.05221751954764361,0.06616232587842058,-0.03207439566545435,0.0
-0.05215046431427769,0.06611082745919555,-0.032006267548354575,0.0
-0.052350020688774666,0.06616769029708985,-0.031962279315266524,0.0
-0.05233044056063182,0.06613443090134036,-0.0320312120951667,0.0
-0.0522271755012483,0.06608722401705075,-0.03208002830505709,0.0
-0.05237657456118757,0.06611806942439907,-0.03195557379192993,0.0
-0.052314883746490924,0.066185124657765,-0.03184372566267558,0.0
-0.05222207930351249,0.06622160270471605,-0.03195825600126457,0.0
-0.05219150211709763,0.06620175435563974,-0.032079760084123624,0.0
-0.05229718116488232,0.06615857078535209,-0.03191185377977535,0.0
-0.05235028890970813,0.06626693204247142,-0.031788203929448595,0.0
-0.05233044056063182,0.06622750356525225,-0.0319314339079182,0.0
-0.052289402757811874,0.06610894991266131,-0.03206769014211776,0.0
-0.05233741430490187,0.06613952709907617,-0.032040063385971,0.0
-0.052493787109111206,0.06630314186848901,-0.031893882977233286,0.0
-0.052521413865257965,0.06622723534431879,-0.03186303756988496,0.0
-0.05231622485115824,0.06610519481959282,-0.03200599932742111,0.0
-0.052226102617514446,0.06612262918026796,-0.03194538139645831,0.0
-0.05235994486331282,0.0661990721463051,-0.03183970234867362,0.0
-0.05236262707264746,0.0662508387864636,-0.031806442952924126,0.0
-0.052385694072925336,0.06615830256441863,-0.03199178361794753,0.0
-0.052378988549588744,0.0661577661225517,-0.03191265844257574,0.0
-0.05232561258382947,0.06618592932056538,-0.03177962085957776,0.0
-0.05236691860758288,0.06629348591488432,-0.03179732344118636,0.0
-0.05235028890970813,0.06618592932056538,-0.03194752716392602,0.0
-0.05244416623642042,0.06607837272624645,-0.031927410593916246,0.0
-0.052389985607860755,0.06622213914658298,-0.03184104345334094,0.0
-0.05238837628225997,0.06625405743766516,-0.03182334087173234,0.0
-0.05232829479316411,0.06625754430980019,-0.03194833182672641,0.0
-0.05248627692297422,0.06621677472791371,-0.03210443641000228,0.0
-0.05244014292241846,0.0661636669830879,-0.03180241963892217,0.0
-0.05242700009667874,0.0662079234371094,-0.031782303068912394,0.0
-0.05236772327038327,0.0662588854144675,-0.03189441941910021,0.0
-0.05237630634025411,0.06621301963484522,-0.031995806931949484,0.0
-0.052580422470619975,0.06625727608886672,-0.0318863727910963,0.0
-0.05248091250430495,0.06629643634515242,-0.03190595291923915,0.0
-0.05233714608396841,0.06620926454177672,-0.03190595291923915,0.0
-0.05238676695665919,0.06603867602809382,-0.032019410374094295,0.0
-0.05241573481747327,0.06612075163373371,-0.0319343843381863,0.0
-0.052407419968535894,0.0662685413680722,-0.03184077523240748,0.0
-0.05248949557417579,0.06618780686709963,-0.03195128225699451,0.0
-0.0525994661568959,0.0661872704252327,-0.03205025578144262,0.0
-0.05245650439935975,0.06610331727305857,-0.03201029086235653,0.0
-0.05241814880587444,0.06619504883230315,-0.03181422135999457,0.0
-0.052361554188913605,0.06620443656497438,-0.03180617473199066,0.0
-0.052354312223710085,0.06612879826173762,-0.031993661164481775,0.0
-0.05239454536372964,0.06614542795961237,-0.03186491511641921,0.0
-0.05246347814362981,0.06610546304052628,-0.03181931755773038,0.0
-0.052503174841782435,0.06617600514602723,-0.031828168848534684,0.0
-0.05232749013036372,0.06607408119131103,-0.03200304889715301,0.0
-0.052354312223710085,0.06611109568012902,-0.031990710734213675,0.0
-0.05242190389894293,0.06618002846002918,-0.031832728604403566,0.0
-0.0524457755620212,0.06612316562213488,-0.031851504069746024,0.0
-0.05242190389894293,0.06617359115762605,-0.03191614531471077,0.0
-0.05236772327038327,0.06614033176187656,-0.031979177234074736,0.0
-0.05235082535157506,0.06611002279639516,-0.03187081597695541,0.0
-0.05240151910799969,0.06613013936640494,-0.03183433793000435,0.0
-0.052485740481107296,0.06605798793530321,-0.0320459642465072,0.0
-0.05248466759737344,0.06614086820374349,-0.03194940471046027,0.0
-0.052403933096400866,0.06624279215845968,-0.03192794703578317,0.0
-0.052356457991177795,0.06620121791377281,-0.031854454500014125,0.0
-0.052364504619181705,0.06620068147190589,-0.031812880255327254,0.0
-0.05238328008452416,0.06609580708692159,-0.032052937990777255,0.0
-0.05240286021266701,0.0661009032846574,-0.031907562244839933,0.0
-0.05240795641040282,0.06609607530785505,-0.031771306010640384,0.0
-0.05248386293457305,0.06612397028493527,-0.03185284517441334,0.0
-0.052654719669189415,0.06611216856386287,-0.03198373698994362,0.0
-0.052479839620571095,0.06614086820374349,-0.03196925305953658,0.0
-0.05245596795749282,0.06613872243627578,-0.03186116002335072,0.0
-0.05232936767689796,0.06617895557629533,-0.03177237889437424,0.0
-0.05223495390831875,0.06606630278424058,-0.0319166817565777,0.0
-0.05231971172329327,0.06611833764533254,-0.03188100837242703,0.0
-0.052451139980690474,0.06612075163373371,-0.031805638290123735,0.0
-0.052431559852547625,0.0661843199949646,-0.03172007581234882,0.0
-0.05235458044464355,0.06612316562213488,-0.03186437867455228,0.0
-0.05241197972440478,0.0661392588781427,-0.031933847896319374,0.0
-0.05248305827177266,0.06613550378507421,-0.03167930623046234,0.0
-0.05250988036511903,0.0660853464705165,-0.03167903800952888,0.0
-0.052504515946449754,0.06616098477375326,-0.03170746942847603,0.0
-0.05241653948027366,0.06606710744704097,-0.03184023879054055,0.0
-0.052290207420612266,0.06606254769117209,-0.03175413987089871,0.0
-0.05244362979455349,0.06605047774916623,-0.031728390661286195,0.0
-0.05236718682851634,0.06607300830757717,-0.031721953358883066,0.0
-0.05235967664237936,0.06611216856386287,-0.031887982116697085,0.0
-0.05238220720079031,0.06615803434348516,-0.03180241963892217,0.0
-0.0524575772830936,0.0661068041451936,-0.03174636146382826,0.0
-0.052457040841226675,0.06611672831973175,-0.03182414553453273,0.0
-0.0522840383391426,0.06598020386459874,-0.03194806360579295,0.0
-0.052277869257672936,0.06601265859754785,-0.03186008713961686,0.0
-0.052363699956381314,0.06608105493558109,-0.0317246355682177,0.0
-0.052529460493261876,0.06617707802976108,-0.0317696966850396,0.0
-0.05255172283073936,0.06606710744704097,-0.03195476912912954,0.0
-0.052272773059937126,0.06598395895766723,-0.03189656518656792,0.0
-0.0522212746407121,0.06597564410872986,-0.03168949862593396,0.0
-0.052274918827404836,0.06610948635452824,-0.03163049002057195,0.0
-0.0522035720591035,0.0661068041451936,-0.03179088613878323,0.0
-0.05223656323391953,0.0660402853536946,-0.03181261203439379,0.0
-0.05237603811932064,0.06612262918026796,-0.03169298549806899,0.0
-0.05250692993485093,0.06601775479528366,-0.031673137148992676,0.0
-0.05228672054847724,0.06602875185355567,-0.031741533487025915,0.0
-0.052286452327543774,0.06594453048044807,-0.03186706088388692,0.0
-0.052228248384982155,0.0659029562357612,-0.03160420436909251,0.0
-0.0522633853272659,0.06622294380938337,-0.03144729512301625,0.0
-0.05226874974593517,0.0660920519938531,-0.03165516634645061,0.0
-0.0522633853272659,0.06598798227166919,-0.031769160243172674,0.0
-0.05236128596798014,0.06608561469144997,-0.03167179604432536,0.0
-0.05235163001437545,0.06614086820374349,-0.03158006448508078,0.0
-0.05229476717648115,0.06605315995850086,-0.031708810533143346,0.0
-0.05222288396631288,0.0660255332023541,-0.031845066767342896,0.0
-0.05233419565370031,0.06594909023631695,-0.031712297405278374,0.0
-0.052506125272050536,0.06603679848155958,-0.0315961577410886,0.0
-0.05237791566585489,0.06610787702892745,-0.03171202918434491,0.0
-0.05216655757028551,0.06597886275993142,-0.03188127659336049,0.0
-0.05219123389616417,0.06606227947023863,-0.03178123018517854,0.0
-0.052323735037295226,0.06608641935425036,-0.03159562129922167,0.0
-0.052234149245518356,0.06607810450531298,-0.03163022179963849,0.0
-0.05218935634962992,0.06606710744704097,-0.0318324603834701,0.0
-0.05230951932782165,0.06596330594579053,-0.0317578949639672,0.0
-0.052240586547921485,0.06599468779500578,-0.03155914325227061,0.0
-0.05221778776857707,0.06605155063290008,-0.03161868829949955,0.0
-0.05211291338359277,0.06592816900350679,-0.03184238455800826,0.0
-0.05209977055785305,0.06592977832910757,-0.03184560320920982,0.0
-0.05219016101243031,0.06607595873784528,-0.031584892461883125,0.0
-0.05231246975808975,0.06610760880799399,-0.031633708671773515,0.0
-0.05209682012758495,0.06594935845725042,-0.03176647803383804,0.0
-0.05194715284671222,0.06599817466714081,-0.031757626743033736,0.0
-0.052089846383314896,0.06598449539953416,-0.03162753959030385,0.0
-0.05227438238553791,0.06602204633021908,-0.03157845515948,0.0
-0.05218694236122875,0.06606040192370438,-0.03167850156766195,0.0
-0.05208448196464562,0.06597939920179835,-0.031767819138505356,0.0
-0.05212793375586674,0.06601480436501556,-0.031692717277135525,0.0
-0.052160388488815844,0.06608856512171807,-0.031678769788595414,0.0
-0.052158242721348134,0.06607086254010947,-0.03187108419788887,0.0
-0.05206677938303702,0.06605315995850086,-0.031829509953202,0.0
-0.052156901616680816,0.06597671699246371,-0.031667236288456475,0.0
-0.05201662206847931,0.06606201124930516,-0.03151461857731564,0.0
-0.05195895456778462,0.06609848929625622,-0.031645242171912454,0.0
-0.05204988146422881,0.06596062373645589,-0.03179517767371865,0.0
-0.05202466869648322,0.06593567918964377,-0.03173831483582435,0.0
-0.052043175940892215,0.06611216856386287,-0.031554315275468266,0.0
-0.05207053447610551,0.06600032043460852,-0.03147009390236067,0.0
-0.052051222568896126,0.06600595307421125,-0.03173107287062083,0.0
-0.052084750185579086,0.06600032043460852,-0.0317578949639672,0.0
-0.052045321708359925,0.06602821541168874,-0.03167796512579502,0.0
-0.051996773719403,0.06606040192370438,-0.03171068807967759,0.0
-0.052009648324209255,0.06602070522555176,-0.0317069329866091,0.0
-0.05202466869648322,0.06588418077041874,-0.03167689224206117,0.0
-0.05199784660313685,0.06602606964422103,-0.03153419870545849,0.0
-0.05204639459209378,0.06611055923826209,-0.031574700066411505,0.0
-0.051988458870465624,0.06612531138960259,-0.031657043892984855,0.0
-0.051963782544586966,0.06611431433133058,-0.03164336462537821,0.0
-0.051936692230307134,0.06609473420318773,-0.031699959242339044,0.0
-0.05197209739352434,0.0660794456099803,-0.03158006448508078,0.0
-0.051995700835669144,0.06609983040092354,-0.03156477589187335,0.0
-0.05190048240428953,0.06608266426118187,-0.031761918277969155,0.0
-0.052169239779620145,0.06602285099301947,-0.031553510612667875,0.0
-0.05219874408230115,0.06610412193585896,-0.031399551796859715,0.0
-0.0519546630328492,0.06604457688863002,-0.0315392949031943,0.0
-0.051870173438808134,0.06597805809713103,-0.03153366226359156,0.0
-0.05190182350895685,0.06588015745641679,-0.03165650745111793,0.0
-0.05203164244075328,0.06609017444731885,-0.03130352870267972,0.0
-0.05199328684726797,0.06616447164588829,-0.03139767425032547,0.0
-0.051928645602303224,0.06609661174972198,-0.03153258937985771,0.0
-0.05198979997513294,0.06593755673617802,-0.03157228607801033,0.0
-0.051968074079522385,0.0660861511333169,-0.03143924849501234,0.0
-0.05193079136977093,0.0661880750880331,-0.03148162740249961,0.0
-0.05195412659098227,0.06608936978451846,-0.031558606810403685,0.0
-0.051933205358172106,0.06601614546968287,-0.031564507670939886,0.0
-0.052035933975688696,0.06603062940008991,-0.03145185487888514,0.0
-0.05204800391769456,0.06602472853955371,-0.03147733586756419,0.0
-0.05188009761334629,0.06589839647989232,-0.03160420436909251,0.0
-0.0519428613117768,0.06579164454837377,-0.031665090520988766,0.0
-0.05213168884893523,0.0659118075265655,-0.031523738089053406,0.0
-0.052038079743156405,0.0660402853536946,-0.031483504949033854,0.0
-0.05195412659098227,0.06588874052628763,-0.03172570845195156,0.0
-0.05187366031094316,0.06591958593363595,-0.03169298549806899,0.0
-0.051942593090843335,0.06593460630590992,-0.031476262983830335,0.0
-0.05204988146422881,0.06598878693446958,-0.031460974390622905,0.0
-0.05200777077767501,0.06599924755087466,-0.03155592460106905,0.0
-0.05188948534601752,0.06591395329403321,-0.031683865986331224,0.0
-0.05195546769564959,0.06588552187508606,-0.03166374941632145,0.0
-0.052168435116819754,0.0660255332023541,-0.03153714913572659,0.0
-0.05201286697541082,0.0659686703644598,-0.0315873064502843,0.0
-0.052005356789273836,0.06592575501510561,-0.03175118944063061,0.0
-0.05220035340790193,0.06597001146912712,-0.031673137148992676,0.0
-0.05203325176635406,0.06603357983035801,-0.031402502227127815,0.0
-0.051890558229751374,0.06600112509740891,-0.03154653686839782,0.0
-0.05192462228830127,0.06590832065443047,-0.031675282916460386,0.0
-0.05195975923058501,0.06587720702614869,-0.03154734153119821,0.0
-0.052096283685718024,0.06581739375798629,-0.03149772065850743,0.0
-0.05209547902291763,0.06600327086487662,-0.03143200652980882,0.0
-0.05194205664897641,0.0659901280391369,-0.03159374375268743,0.0
-0.051958686346851156,0.065993078469405,-0.0317431428126267,0.0
-0.05218426015189411,0.06596518349232477,-0.03140867130859748,0.0
-0.052027887347684786,0.06599629712060656,-0.031435225181010384,0.0
-0.051885462032015564,0.06597323012032869,-0.031568799205875304,0.0
-0.05190906547416037,0.06593111943377489,-0.03159052510148586,0.0
-0.05201796317314663,0.0659539182131193,-0.031474921879163016,0.0
-0.05212096001159668,0.06608105493558109,-0.03143415229727653,0.0
-0.05193642400937367,0.06599951577180813,-0.03145105021608475,0.0
-0.05193132781163786,0.0659362156315107,-0.03160071749695748,0.0
-0.052110231174258136,0.06596250128299014,-0.03152186054251916,0.0
-0.05211479093012702,0.06605315995850086,-0.03147760408849765,0.0
-0.051971829172590876,0.06596920680632673,-0.03159562129922167,0.0
-0.05195412659098227,0.06592012237550288,-0.0316441692881786,0.0
-0.052015549184745456,0.06596330594579053,-0.03153071183332346,0.0
-0.05209977055785305,0.0659539182131193,-0.031452927762618994,0.0
-0.05202466869648322,0.06596786570165941,-0.03152776140305536,0.0
-0.05200133347527188,0.06595713686432086,-0.031584087799082734,0.0
-0.052204913163770815,0.0659863729460684,-0.0315030850771767,0.0
-0.052204108500970424,0.06594694446884924,-0.03138158099431765,0.0
-0.05211988712786283,0.06587801168894908,-0.031451586657951676,0.0
-0.052067852266770874,0.06596169662018975,-0.0315215923215857,0.0
-0.05207241202263976,0.06601292681848131,-0.0315814055897481,0.0
-0.05216172959348316,0.06599415135313885,-0.03135717288937245,0.0
-0.052156096953880425,0.06596598815512517,-0.031383458540851894,0.0
-0.05221966531511132,0.06588015745641679,-0.03152963894958961,0.0
-0.05235753087491165,0.06591958593363595,-0.03149101513517084,0.0
-0.052212155128974334,0.0659804720855322,-0.03138184921525111,0.0
-0.05212659265119942,0.06595043134098427,-0.03147304433262877,0.0
-0.05206597472023663,0.06583965609546377,-0.031589183996818544,0.0
-0.05213598038387065,0.06590215157296081,-0.03160554547375983,0.0
-0.052236295012986066,0.06593943428271226,-0.03147143500702799,0.0
-0.05236611394478249,0.06591958593363595,-0.031465265925558324,0.0
-0.05217540886108981,0.0659324605384422,-0.031609568787761784,0.0
-0.05205605054569847,0.06596598815512517,-0.031624857380969214,0.0
-0.052186674140295285,0.06600863528354589,-0.03146794813489296,0.0
-0.052361554188913605,0.06602285099301947,-0.0314365662856777,0.0
-0.05218104150069255,0.06594453048044807,-0.03158757467121776,0.0
-0.05205390477823076,0.06588203500295103,-0.03173482796368932,0.0
-0.05216012026788238,0.0659960288996731,-0.03172678133568541,0.0
-0.05222046997791171,0.066089101563585,-0.03131533042375212,0.0
-0.052193916105498804,0.06600058865554198,-0.03150523084464441,0.0
-0.052156096953880425,0.06596437882952438,-0.03168225666073044,0.0
-0.05235592154931087,0.06597510766686293,-0.03169137617246821,0.0
-0.052235490350185675,0.06599629712060656,-0.031519178333184523,0.0
-0.05223951366418763,0.0659775216552641,-0.031580600926947706,0.0
-0.05225936201326394,0.06598449539953416,-0.031691912614335134,0.0
-0.05215716983761428,0.06601990056275137,-0.03159749884575592,0.0
-0.05219337966363188,0.06595525931778662,-0.03159776706668938,0.0
-0.052246487408457686,0.06602499676048718,-0.03152320164718648,0.0
-0.05213839437227182,0.06592495035230522,-0.03171041985874413,0.0
-0.05208448196464562,0.06587962101454986,-0.03169110795153474,0.0
-0.05218265082629333,0.06605155063290008,-0.03142127769247027,0.0
-0.05215475584921311,0.06596437882952438,-0.03149906176317475,0.0
-0.05206731582490395,0.06599039626007036,-0.03164926548591441,0.0
-0.05209977055785305,0.0659539182131193,-0.0316412188579105,0.0
-0.052168435116819754,0.0659871776088688,-0.03147894519316497,0.0
-0.05223388102458489,0.06598074030646567,-0.031481359181566144,0.0
-0.052204108500970424,0.06595311355031891,-0.03173187753342122,0.0
-0.0521164002557278,0.0659539182131193,-0.03161707897389877,0.0
-0.05221054580337355,0.06598395895766723,-0.03156343478720603,0.0
-0.052072948464506684,0.06596464705045785,-0.03149503844917279,0.0
-0.052027887347684786,0.06594372581764768,-0.03152642029838804,0.0
-0.05209467436011724,0.06590778421256355,-0.03161895652043301,0.0
-0.05224541452472383,0.06594345759671422,-0.03150576728651134,0.0
-0.05221054580337355,0.06601936412088444,-0.031420741250603346,0.0
-0.052102184546254225,0.0659657199341917,-0.0316050090318929,0.0
-0.05207858110410942,0.06589356850308997,-0.031666431625656084,0.0
-0.05209091926704875,0.06597886275993142,-0.03146285193715715,0.0
-0.052233344582717965,0.06600407552767701,-0.03136414663364251,0.0
-0.05233446387463377,0.06592575501510561,-0.031456682855687486,0.0
-0.052273309501804054,0.0659126121893659,-0.031557802147603294,0.0
-0.05221483733830897,0.06589303206122304,-0.031530175391456534,0.0
-0.0521311524070683,0.06586781929347746,-0.03147894519316497,0.0
-0.05212391044186478,0.06607005787730907,-0.031433884076343066,0.0
-0.05213302995360255,0.06595633220152047,-0.03155297417080095,0.0
-0.05220813181497238,0.06592629145697254,-0.03152642029838804,0.0
-0.0522389772223207,0.06598100852739913,-0.03141028063419826,0.0
-0.05206624294117009,0.06595660042245394,-0.03135744111030592,0.0
-0.05209467436011724,0.0659273643407064,-0.031520787658785306,0.0
-0.05210379387185501,0.06582892725812522,-0.0315451957637305,0.0
-0.05211774136039512,0.06597135257379444,-0.031383458540851894,0.0
-0.0521341028373364,0.06597188901566137,-0.03134403006363273,0.0
-0.05206624294117009,0.0659391660617788,-0.03149852532130782,0.0
-0.052069461592371656,0.06591958593363595,-0.03160635013656022,0.0
-0.05209547902291763,0.0659000058054931,-0.03134027497056424,0.0
-0.05213383461640294,0.06594265293391383,-0.031293872749075025,0.0
-0.05208582306931294,0.06593889784084533,-0.03137755768031569,0.0
-0.052064365394635846,0.06591958593363595,-0.03142637389020608,0.0
-0.05210593963932272,0.06578815767623875,-0.03138533608738614,0.0
-0.05215797450041467,0.06585306714213696,-0.03124264255078346,0.0
-0.05207536245290786,0.06599146914380422,-0.03127375617906525,0.0
-0.05200723433580808,0.0658726472702798,-0.031455073530086704,0.0
-0.052037275080356014,0.0659657199341917,-0.03134966270323547,0.0
-0.0521585109422816,0.06600595307421125,-0.031262490899859774,0.0
-0.05216655757028551,0.06587908457268293,-0.03123003616691067,0.0
-0.05208072687157713,0.06578869411810567,-0.03145829218128827,0.0
-0.05241975813147522,0.0658216852929217,-0.03131264821441748,0.0
-0.052277869257672936,0.06585548113053813,-0.03118712081755648,0.0
-0.051870173438808134,0.06598449539953416,-0.031258199364924355,0.0
-0.0519908728588668,0.06580210516477886,-0.03138104455245072,0.0
-0.052027887347684786,0.06580907890904891,-0.03143549340194385,0.0
-0.05200803899860847,0.06586513708414282,-0.031213942910902848,0.0
-0.05207750822037557,0.06584850738626807,-0.03119302167809268,0.0
-0.052070802697038975,0.06587988923548332,-0.03137138859884603,0.0
-0.05214107658160646,0.06580666492064774,-0.0313472487148343,0.0
-0.05219713475670037,0.06577340552489824,-0.03119436278276,0.0
-0.05208287263904484,0.06584716628160076,-0.03118121995702028,0.0
-0.05207482601104093,0.06581417510678472,-0.03135422245910435,0.0
-0.052171385547087855,0.06581390688585126,-0.03138775007578731,0.0
-0.052106476081189644,0.06581149289745009,-0.031241301446116143,0.0
-0.052112376941725845,0.06585843156080623,-0.03126141801612592,0.0
-0.052103525650921544,0.06579486319957534,-0.03138801829672078,0.0
-0.05209011460424836,0.06585387180493735,-0.031427983215806865,0.0
-0.05216977622148707,0.06588257144481796,-0.03134617583110044,0.0
-0.05225426581552813,0.06591395329403321,-0.03133598343562882,0.0
-0.0522330763617845,0.06582919547905869,-0.031299773609611226,0.0
-0.05214134480253992,0.0657471198734188,-0.03143200652980882,0.0
-0.05214402701187456,0.06585038493280232,-0.031323108830822566,0.0
-0.05230013159515042,0.06590054224736003,-0.03124398365545078,0.0
-0.052255875141128914,0.06588471721228567,-0.03135851399403977,0.0
-0.05212498332559864,0.06585038493280232,-0.031368974610444855,0.0
-0.052073753127307075,0.06578279325756947,-0.031382117436184576,0.0
-0.05224219587352227,0.06586942861907824,-0.031258199364924355,0.0
-0.052196061872966514,0.06589786003802539,-0.03130567447014743,0.0
-0.05207053447610551,0.0658216852929217,-0.031466070588358715,0.0
-0.05219016101243031,0.06577260086209785,-0.03143147008794189,0.0
-0.05220142629163579,0.06580907890904891,-0.03131908551682061,0.0
-0.05226526287380014,0.06588847230535416,-0.03132123128428832,0.0
-0.05208555484837948,0.06579486319957534,-0.03141430394820022,0.0
-0.05201340341727775,0.0657559711642231,-0.03153849024039391,0.0
-0.05218908812869646,0.06580961535091584,-0.03134805337763469,0.0
-0.05212364222093132,0.0658187348626536,-0.03127241507439793,0.0
-0.052044785266493,0.06576670000156165,-0.031409744192331335,0.0
-0.05203673863848909,0.06567496844231707,-0.03151944655411799,0.0
-0.05204505348742646,0.06580532381598042,-0.03133920208683039,0.0
-0.05214939143054383,0.06573585459421333,-0.03128099814426877,0.0
-0.05209601546478456,0.06576079914102545,-0.031351540249769716,0.0
-0.05206892515050473,0.06573156305927791,-0.031517837228517205,0.0
-0.05209762479038534,0.06577608773423288,-0.03143120186700843,0.0
-0.05211988712786283,0.06583000014185908,-0.031164590259145527,0.0
-0.05211693669759473,0.06582034418825439,-0.03131667152841944,0.0
-0.05205202723169652,0.06570554562873193,-0.03147974985596536,0.0
-0.05231381086275707,0.0657479245362192,-0.031436029843810775,0.0
-0.0523712101425183,0.06585950444454008,-0.03128046170240184,0.0
-0.05209065104611529,0.06582570860692366,-0.031358782214973235,0.0
-0.05197558426565937,0.06575516650142271,-0.03149557489103972,0.0
-0.05207536245290786,0.06578091571103523,-0.031471971448894916,0.0
-0.05224997428059271,0.06583455989772796,-0.03133786098216307,0.0
-0.05221188690804087,0.06579888651357729,-0.031268391760395975,0.0
-0.05209011460424836,0.06575811693169081,-0.031425837448339156,0.0
-0.05215502407014657,0.0657353181523464,-0.031433079413542675,0.0
-0.052191770338031095,0.06583080480465947,-0.03136548773830983,0.0
-0.05219820764043422,0.06579674074610958,-0.031194094561826535,0.0
-0.052086091290246404,0.06578762123437182,-0.03132418171455642,0.0
-0.05198953175419948,0.06581685731611936,-0.03140357511086167,0.0
-0.05212498332559864,0.0658586997817397,-0.031273487958131785,0.0
-0.0521134498254597,0.0658696968400117,-0.031178537747685642,0.0
-0.05205310011543037,0.06583107302559293,-0.03135690466843899,0.0
-0.05208716417398026,0.06563071198829555,-0.031565848775607204,0.0
-0.05219418432643227,0.06585226247933657,-0.03127456084186564,0.0
-0.05226284888539897,0.06589839647989232,-0.03123164549251145,0.0
-0.052197671198567296,0.06587157438654595,-0.03135207669163664,0.0
-0.052094137918250315,0.0657205660010059,-0.03145265954168553,0.0
-0.05214644100027573,0.06573370882674562,-0.031302724039879326,0.0
-0.0521732630936221,0.06586191843294126,-0.03130460158641357,0.0
-0.05220169451256925,0.06575328895488847,-0.031299773609611226,0.0
-0.05236262707264746,0.06572834440807634,-0.0313287414704253,0.0
-0.05227304128087059,0.06577930638543444,-0.031296018516542734,0.0
-0.05218130972162601,0.06588605831695299,-0.031202141189830446,0.0
-0.0520957472438511,0.0658157844323855,-0.031277779493067204,0.0
-0.05210191632532076,0.06576616355969472,-0.03138587252925307,0.0
-0.05221483733830897,0.06570366808219769,-0.03137755768031569,0.0
-0.05230898288595472,0.06576079914102545,-0.031287435446671896,0.0
-0.0522751870483383,0.0659088570962974,-0.031292531644407706,0.0
-0.05223575857111914,0.06581900308358707,-0.031411889959799044,0.0
-0.05226794508313478,0.06575999447822506,-0.03136414663364251,0.0
-0.05236718682851634,0.06585118959560271,-0.031130257979662176,0.0
-0.052355653328377404,0.0658098835718493,-0.031200531864229664,0.0
-0.052274918827404836,0.06574068257101567,-0.031350735586969325,0.0
-0.052274918827404836,0.065801032281045,-0.03136065976150748,0.0
-0.052344924491038856,0.06586701463067707,-0.03124317899265039,0.0
-0.05244416623642042,0.0658549446886712,-0.031226817515709104,0.0
-0.052423513224543715,0.065849043828135,-0.03138882295952117,0.0
-0.052298254048616176,0.06584582517693344,-0.031408939529530944,0.0
-0.05221617844297629,0.06591878127083556,-0.03131050244694977,0.0
-0.05232641724662986,0.06591448973590014,-0.031173173329016365,0.0
-0.05232641724662986,0.06579432675770841,-0.03130862490041553,0.0
-0.052301740920751204,0.06564331837216836,-0.031406793762063234,0.0
-0.05244926243415623,0.06585467646773774,-0.0312541760509224,0.0
-0.052538043563132714,0.06589490960775729,-0.031199190759562345,0.0
-0.0522928896299469,0.06594292115484729,-0.03134510294736659,0.0
-0.05205310011543037,0.06583751032799606,-0.03144139426248005,0.0
-0.05208528662744601,0.06583026836279254,-0.031245592981051562,0.0
-0.05228537944380992,0.06588632653788645,-0.031138841049533014,0.0
-0.05230603245568662,0.06578601190877104,-0.03122735395757603,0.0
-0.0521164002557278,0.0658018369438454,-0.031371120377912565,0.0
-0.05213624860480411,0.06592173170110366,-0.03141430394820022,0.0
-0.05225185182712696,0.06590617488696277,-0.031228963283176814,0.0
-0.0522330763617845,0.06592897366630718,-0.03126061335332553,0.0
-0.052180773279759084,0.06591824482896863,-0.031402502227127815,0.0
-0.052218055989510535,0.06586191843294126,-0.03127375617906525,0.0
-0.052273309501804054,0.06587586592148137,-0.03119811787582849,0.0
-0.05230147269981774,0.06598449539953416,-0.03129575029560927,0.0
-0.05228591588567685,0.06576938221089629,-0.031370315715112174,0.0
-0.05218050505882562,0.0658705015028121,-0.031245056539184635,0.0
-0.05237872032865528,0.06590161513109388,-0.031217429783037876,0.0
-0.052376842782121034,0.0659118075265655,-0.03117344154994983,0.0
-0.05213007952333445,0.06590429734042852,-0.03125471249278933,0.0
-0.0520957472438511,0.06579995939731115,-0.03138104455245072,0.0
-0.05219740297763383,0.06579995939731115,-0.03121850266677173,0.0
-0.05230522779288623,0.06591314863123282,-0.03119811787582849,0.0
-0.05228323367634221,0.06585172603746964,-0.03127509728373257,0.0
-0.052158242721348134,0.0658941049449569,-0.03127992526053491,0.0
-0.052356457991177795,0.06586781929347746,-0.031240765004249216,0.0
-0.052440947585218854,0.06586942861907824,-0.03115091099153888,0.0
-0.05208287263904484,0.06590724777069662,-0.031164322038212063,0.0
-0.0520085754404754,0.06578735301343835,-0.0313139893190848,0.0
-0.05219874408230115,0.06576723644342858,-0.0312541760509224,0.0
-0.05232132104889405,0.06595123600378466,-0.03116915001501441,0.0
-0.05219364788456534,0.06588391254948528,-0.031162176270744354,0.0
-0.05202681446395093,0.06580586025784735,-0.0313257910401572,0.0
-0.05210915829052428,0.06582034418825439,-0.031275633725599494,0.0
-0.05221269157084126,0.06586245487480819,-0.03114956988687156,0.0
-0.052246487408457686,0.0658793527936164,-0.031175855538351005,0.0
-0.052140808360672995,0.06577206442023092,-0.03130594269108089,0.0
-0.052117473139461655,0.06579539964144226,-0.031293872749075025,0.0
-0.0521850648146945,0.06588659475881992,-0.031217429783037876,0.0
-0.05216280247721702,0.06598369073673377,-0.031228158620376423,0.0
-0.05224031832698802,0.06594158005017997,-0.03145131843701821,0.0
-0.052179432175091765,0.06585011671186886,-0.03130567447014743,0.0
-0.052343851607305,0.06587425659588059,-0.031172368666215974,0.0
-0.05229798582768271,0.06586057732827394,-0.03127509728373257,0.0
-0.052180773279759084,0.06588659475881992,-0.031260345132392064,0.0
-0.05215046431427769,0.06586030910734048,-0.03137272970351335,0.0
-0.05224916961779232,0.06585574935147159,-0.03118631615475609,0.0
-0.05237013725878444,0.06590134691016042,-0.031081173548838322,0.0
-0.05210325742998808,0.06584582517693344,-0.031250957399720836,0.0
-0.05194929861417993,0.0658018369438454,-0.03135744111030592,0.0
-0.052055514103831545,0.06582678149065752,-0.03133222834256033,0.0
-0.052193916105498804,0.06587023328187863,-0.031156543631141616,0.0
-0.0521732630936221,0.06590724777069662,-0.031229231504110277,0.0
-0.05206972981330512,0.06589893292175925,-0.0313442982845662,0.0
-0.05209226037171607,0.06592226814297059,-0.03126356378359363,0.0
-0.05224997428059271,0.06591502617776707,-0.031146351235669997,0.0
-0.052245682745657294,0.06587720702614869,-0.031231109050644523,0.0
-0.052102989209054616,0.065867551072544,-0.03133947030776385,0.0
-0.052129811302400984,0.06587988923548332,-0.031257394702123964,0.0
-0.05210781718585696,0.06594158005017997,-0.031130794421529103,0.0
-0.0521164002557278,0.0658882040844207,-0.03112462534005944,0.0
-0.05206221962716814,0.06589195917748919,-0.03137433902911413,0.0
-0.052128470197733666,0.06585521290960467,-0.031395260261924296,0.0
-0.052104330313721935,0.06583402345586103,-0.031021092059742458,0.0
-0.052118277802262046,0.06596169662018975,-0.03098407757092447,0.0
-0.05206114674343428,0.06588552187508606,-0.03122654929477564,0.0
-0.05206463361556931,0.06589544604962422,-0.03125632181839011,0.0
-0.05202735090581786,0.06588310788668489,-0.031188998364090725,0.0
-0.05207697177850864,0.06595177244565159,-0.031081441769771786,0.0
-0.052218055989510535,0.06595177244565159,-0.03125149384158776,0.0
-0.052244341640989976,0.06581176111838355,-0.03133786098216307,0.0
-0.052070802697038975,0.06590376089856159,-0.03121930732957212,0.0
-0.05194205664897641,0.06605155063290008,-0.031128648654061394,0.0
-0.051860785706136905,0.06592468213137176,-0.031249348074120054,0.0
-0.05192247652083356,0.06588686297975338,-0.031382117436184576,0.0
-0.051966732974855066,0.06580854246718199,-0.03132123128428832,0.0
-0.052010989428876574,0.06592039059643634,-0.03118792548035687,0.0
-0.051927304497635905,0.06600085687647544,-0.031229767945977205,0.0
-0.051902359950823776,0.06589142273562226,-0.03146285193715715,0.0
-0.05197477960285898,0.06587586592148137,-0.03142261879713759,0.0
-0.0520506861270292,0.06587211082841288,-0.031150642770605416,0.0
-0.05203056955701942,0.06590161513109388,-0.031194631003693463,0.0
-0.051957881684050765,0.06583831499079645,-0.03131908551682061,0.0
-0.05193266891630518,0.06585816333987277,-0.031275633725599494,0.0
-0.052004552126473445,0.06589222739842265,-0.03115681185207508,0.0
-0.0518881442413502,0.06588927696815455,-0.03117075934061519,0.0
-0.051905310381091876,0.06589732359615846,-0.031360123319640554,0.0
-0.05202600980115054,0.0659206588173698,-0.031406793762063234,0.0
-0.05200830721954194,0.06596598815512517,-0.03133061901695955,0.0
-0.05203191066168674,0.06594372581764768,-0.031171027561548655,0.0
-0.05203566575475523,0.06592790078257332,-0.031246397643851953,0.0
-0.05192328118363395,0.0658814985610841,-0.03135341779630396,0.0
-0.05193481468377289,0.06595552753872008,-0.03118417038728838,0.0
-0.051960832114318865,0.06594935845725042,-0.031131867305262958,0.0
-0.05194500707924451,0.06583187768839333,-0.031273487958131785,0.0
-0.05191577099749697,0.06587613414241483,-0.031340543191497705,0.0
-0.05197638892845976,0.06597698521339718,-0.03116566314287938,0.0
-0.051973170277258195,0.06596357416672399,-0.031123820677259047,0.0
-0.05194527530017797,0.06595820974805472,-0.03124612942291849,0.0
-0.051919257869631995,0.06585011671186886,-0.03139391915725698,0.0
-0.05190933369509383,0.06588900874722109,-0.03129065409787346,0.0
