-0.019842716436709932,0.06526163998384953,0.10258860618932321,0.0
-0.019814553238696245,0.06526056710011567,0.10243572025724891,0.0
-0.01977271077307591,0.06539306824124673,0.10252181917689075,0.0
-0.019798996424555352,0.06533754650801975,0.10245744615285947,0.0
-0.01975956794733619,0.06534022871735438,0.10234318403520394,0.0
-0.019812139250295072,0.0652552026814464,0.10237161545415109,0.0
-0.019830378273770603,0.06519404830861668,0.10253737599103165,0.0
-0.019840838890175686,0.06527531925145617,0.10263420374801203,0.0
-0.019819112994565128,0.06531394306587494,0.10259397060799248,0.0
-0.019848885518179597,0.0652758556933231,0.10250384837434869,0.0
-0.019834401587772558,0.06528497520506087,0.10252530604902578,0.0
-0.019831182936570994,0.06530562821693757,0.10248024493220388,0.0
-0.019846739750711887,0.06528497520506087,0.10250358015341522,0.0
-0.01983171937843792,0.06528738919346204,0.10253898531663243,0.0
-0.019830646494704066,0.065291412507464,0.10254998237490444,0.0
-0.01981777188989781,0.06529597226333288,0.10255373746797293,0.0
-0.01982286808763362,0.06529409471679863,0.10251565009542109,0.0
-0.019847544413512278,0.06526754084438573,0.10249070554860897,0.0
-0.019837888459907586,0.06527102771652075,0.10258190066598662,0.0
-0.019818308331764737,0.06527531925145617,0.10260013968946215,0.0
-0.019815894343363564,0.06525922599544835,0.10251511365355416,0.0
-0.019843521099510323,0.06524903359997673,0.10248882800207472,0.0
-0.01986015079738507,0.06525386157677908,0.10245181351325673,0.0
-0.019841643552976077,0.06524232807664014,0.10233781961653467,0.0
-0.019848617297246133,0.06528202477479277,0.10254569083996902,0.0
-0.019837888459907586,0.06527987900732506,0.10272003444672041,0.0
-0.019829305390036748,0.06530723754253835,0.10265244277148756,0.0
-0.01985505459964926,0.0652973133680002,0.10257814557291813,0.0
-0.01985934613458468,0.0652906078446636,0.10256071121224299,0.0
-0.019864978774187417,0.06528604808879472,0.10254676372370287,0.0
-0.019882949576729484,0.06529463115866556,0.10249687463007863,0.0
-0.01987892626272753,0.06525922599544835,0.10247380762980075,0.0
-0.019886436448864512,0.0652366954370374,0.10245395928072444,0.0
-0.019804360843224626,0.06536839191536807,0.1022844436507754,0.0
-0.01982715962256904,0.06525600734424679,0.10241158037323718,0.0
-0.01986873386725591,0.06525278869304522,0.1025894108521236,0.0
-0.01985424993684887,0.06529892269360098,0.1024520817341902,0.0
-0.019888313995398758,0.06526056710011567,0.10246576100179684,0.0
-0.019875171169659037,0.06531018797280645,0.10245047240858941,0.0
-0.019876244053392892,0.06528122011199237,0.10245932369939371,0.0
-0.019841375332042614,0.06533432785681818,0.10253576666543086,0.0
-0.01985505459964926,0.06532949988001584,0.10248668223460701,0.0
-0.019862833006719708,0.06534049693828785,0.10243116050138003,0.0
-0.019872220739390937,0.0652884620771959,0.102398169326564,0.0
-0.01988268135579602,0.06525547090237986,0.10245449572259137,0.0
-0.019896897065269595,0.06531662527520958,0.1024158719081726,0.0
-0.019891532646600322,0.065350421112826,0.10244162111778511,0.0
-0.019840838890175686,0.06533486429868511,0.10256339342157762,0.0
-0.019885363565130657,0.06532467190321349,0.10254220396783399,0.0
-0.019898506390870378,0.0652994591354679,0.10231663016279104,0.0
-0.019847276192578815,0.06532467190321349,0.10231233862785562,0.0
-0.01988053558832831,0.06529087606559707,0.10261220963146801,0.0
-0.019877316937126747,0.06531179729840723,0.10254488617716863,0.0
-0.019863369448586635,0.06532413546134656,0.10250626236274986,0.0
-0.01987034319285669,0.06530804220533874,0.10250089794408059,0.0
-0.019878121599927138,0.06528604808879472,0.10250358015341522,0.0
-0.019882413134862557,0.06526378575131724,0.10247944026940349,0.0
-0.019857468588050434,0.06527049127465383,0.1024579825947264,0.0
-0.01986015079738507,0.06523535433237009,0.1024424257805855,0.0
-0.019863905890453563,0.06522918525090042,0.1023649099308145,0.0
-0.019849690180979988,0.06516856731993763,0.1025650027471784,0.0
-0.019888850437265685,0.06521631064609416,0.10253657132823125,0.0
-0.019877316937126747,0.065224893715965,0.10251672297915494,0.0
-0.019873561844058255,0.06520370426222137,0.1024971428510121,0.0
-0.01986739276258859,0.06522623482063232,0.10249660640914517,0.0
-0.019871147855657082,0.06523347678583584,0.102505189479016,0.0
-0.01988777755353183,0.06522274794849729,0.10250572592088293,0.0
-0.019896628844336132,0.0652012902738202,0.10250492125808254,0.0
-0.019919427623680548,0.06515301050579674,0.10246629744366377,0.0
-0.01987892626272753,0.0653053599960041,0.10243598847818237,0.0
-0.01986819742538898,0.0652758556933231,0.10211948777669523,0.0
-0.019839497785508368,0.065291412507464,0.10225011137129204,0.0
-0.019874902948725574,0.06528712097252858,0.10276187691234076,0.0
-0.01989367841406803,0.06527934256545813,0.10269535812084175,0.0
-0.019900652158338087,0.06525010648371059,0.102523696723425,0.0
-0.01992613314701714,0.06526780906531919,0.10250143438594751,0.0
-0.019924792042349822,0.06525359335584562,0.10247032075766573,0.0
-0.01991245387941049,0.06527987900732506,0.10246924787393187,0.0
-0.019904943693273506,0.06525842133264796,0.10246549278086338,0.0
-0.019927206030750995,0.06519109787834858,0.10246737032739762,0.0
-0.01994008063555725,0.0652189928554288,0.10244966774578902,0.0
-0.01990092037927155,0.06525010648371059,0.10237295655881841,0.0
-0.019898506390870378,0.0652337450067693,0.10233916072120199,0.0
-0.0198754393905925,0.06532440368228003,0.10249472886261092,0.0
-0.01988992332099954,0.06533298675215087,0.10249097376954243,0.0
-0.019917818298079766,0.06525305691397869,0.10244752197832131,0.0
-0.01989877461180384,0.06524366918130746,0.10255051881677137,0.0
-0.01990440725140658,0.06520611825062254,0.10248131781593774,0.0
-0.019906284797940824,0.06522140684382997,0.10247809916473617,0.0
-0.01991594075154552,0.0652307945765012,0.10248855978114126,0.0
-0.01991889118181362,0.0652219432856969,0.10245986014126064,0.0
-0.019895555960602277,0.06522891702996696,0.10242365031524304,0.0
-0.019886436448864512,0.0652375000998378,0.10239575533816282,0.0
-0.019907894123541606,0.06521872463449534,0.10236598281454835,0.0
-0.019908698786341997,0.06517607750607461,0.10240058331496517,0.0
-0.0198754393905925,0.06517554106420768,0.1023952188962959,0.0
-0.01981052992469429,0.06530187312386908,0.1024542275016579,0.0
-0.019897701728069987,0.06526244464664992,0.10245825081565986,0.0
-0.01997065782197211,0.06520370426222137,0.102398169326564,0.0
-0.019936057321555296,0.06527666035612349,0.10238878159389277,0.0
-0.019890996204733394,0.06529516760053249,0.10247944026940349,0.0
-0.019915672530612057,0.06526915016998651,0.10246146946686142,0.0
-0.01994142174022457,0.06523347678583584,0.10240085153589863,0.0
-0.01992318271674904,0.06521818819262841,0.10245154529232327,0.0
-0.019926401367950604,0.06518519701781238,0.10261489184080265,0.0
-0.01991808651901323,0.06520504536688869,0.10243572025724891,0.0
-0.01992747425168446,0.06522972169276735,0.10226620462729986,0.0
-0.019958051438099318,0.06520397248315483,0.10255454213077332,0.0
-0.019933911554087587,0.0651886838899474,0.10260148079412947,0.0
-0.019914599646878202,0.06525949421638182,0.10255668789824103,0.0
-0.01991379498407781,0.06522221150663036,0.10251457721168723,0.0
-0.019881608472062166,0.06525600734424679,0.10249258309514321,0.0
-0.01991245387941049,0.06521872463449534,0.10246924787393187,0.0
-0.01989367841406803,0.06534022871735438,0.10251618653728801,0.0
-0.019934716216887978,0.06518197836661081,0.10237215189601802,0.0
-0.019952955240363508,0.06515461983139752,0.10256097943317645,0.0
-0.019943835728625743,0.065224893715965,0.10258887441025667,0.0
-0.019955101007831218,0.06526941839091997,0.10258458287532125,0.0
-0.019953491682230436,0.0652404505301059,0.10254220396783399,0.0
-0.01993203400755334,0.06522945347183388,0.10250760346741718,0.0
-0.019919159402747084,0.06528068367012545,0.10236410526801411,0.0
-0.019910576332876243,0.06520665469248947,0.10231341151158947,0.0
-0.019945445054226525,0.06520665469248947,0.102649224120286,0.0
-0.019955101007831218,0.06516400756406875,0.10256607563091226,0.0
-0.019943299286758816,0.06516722621527031,0.10253791243289857,0.0
-0.019912722100343956,0.06522408905316461,0.10260335834066371,0.0
-0.019936593763422224,0.06521201911115874,0.10259853036386136,0.0
-0.019933643333154123,0.06519780340168517,0.10249499708354438,0.0
-0.01991299032127742,0.06520611825062254,0.10247193008326651,0.0
-0.019895287739668813,0.0652315992393016,0.10263339908521164,0.0
-0.01991728185621284,0.06520960512275757,0.10261167318960109,0.0
-0.019896360623402668,0.06521523776236031,0.10263608129454628,0.0
-0.019870611413790155,0.06520155849475366,0.10253388911889662,0.0
-0.01991728185621284,0.06522623482063232,0.1023493531166736,0.0
-0.019956442112498536,0.06520263137848752,0.10236866502388299,0.0
-0.019953491682230436,0.0651835876922116,0.10244993596672249,0.0
-0.019933643333154123,0.06520799579715679,0.10266370805069304,0.0
-0.019947590821694235,0.06514174522659126,0.10252852470022734,0.0
-0.019922109833015185,0.06511465491231143,0.10240192441963249,0.0
-0.019926401367950604,0.06519807162261863,0.10243732958284969,0.0
-0.01993847130995647,0.06512994350551886,0.10244644909458746,0.0
-0.019916477193412448,0.06515247406392981,0.1024638834552626,0.0
-0.01986873386725591,0.06527987900732506,0.10245315461792405,0.0
-0.019875707611525965,0.06524447384410785,0.10237027434948377,0.0
-0.019887241111664903,0.06513638080792199,0.10253710777009818,0.0
-0.01991728185621284,0.0651894885527478,0.10253978997943282,0.0
-0.019891532646600322,0.06515837492446601,0.1025118950023526,0.0
-0.019847544413512278,0.065195389413284,0.1025199416303565,0.0
-0.019887509332598367,0.06521148266929182,0.10243250160604735,0.0
-0.01989287375126764,0.06522757592529964,0.10244591265272053,0.0
-0.019888313995398758,0.06518439235501199,0.10253469378169701,0.0
-0.019897701728069987,0.06520021739008634,0.10244162111778511,0.0
-0.019840034227375295,0.06527987900732506,0.10229168561597891,0.0
-0.0198636376695201,0.06518734278528009,0.10215086962591048,0.0
-0.019873025402191328,0.06523186746023506,0.10267255934149734,0.0
-0.019854786378715798,0.06524501028597478,0.10270072253951103,0.0
-0.01985934613458468,0.0652552026814464,0.10253067046769505,0.0
-0.01985129950658077,0.06523642721610394,0.1025110903395522,0.0
-0.019856932146183507,0.06515435161046405,0.10251591831635455,0.0
-0.019848617297246133,0.06520665469248947,0.10253603488636433,0.0
-0.019864174111387026,0.0651924389830159,0.10246871143206494,0.0
-0.019873025402191328,0.06517044486647187,0.10240353374523327,0.0
-0.019818040110831273,0.06525949421638182,0.10245637326912561,0.0
-0.019801946854823452,0.06521067800649143,0.10249177843234282,0.0
-0.01988107203019524,0.06517044486647187,0.10258082778225276,0.0
-0.019871952518457473,0.06522543015783193,0.1025295975839612,0.0
-0.01986444233232049,0.06521201911115874,0.10252557426995924,0.0
-0.019850763064713842,0.06523025813463428,0.10256822139837997,0.0
-0.01987758515806021,0.06520289959942098,0.1025140407698203,0.0
-0.019871147855657082,0.06518439235501199,0.10249365597887707,0.0
-0.019859614355518144,0.06526459041411763,0.10252503782809232,0.0
-0.019862833006719708,0.06526029887918221,0.10237027434948377,0.0
-0.01987034319285669,0.06526324930945031,0.10254220396783399,0.0
-0.01985639570431658,0.06519914450635249,0.10275999936580651,0.0
-0.019912722100343956,0.06517446818047383,0.10268892081843863,0.0
-0.019879462704594456,0.06527183237932115,0.1024129214779045,0.0
-0.01984486220417764,0.0653112608565403,0.10251001745581835,0.0
-0.01987463472779211,0.06521496954142685,0.10274846586566758,0.0
-0.01989206908846725,0.06517715038980847,0.10260550410813142,0.0
-0.01988563178606412,0.0652012902738202,0.10260657699186528,0.0
-0.019856932146183507,0.06522033396009612,0.10258538753812164,0.0
-0.019836279134306804,0.06526968661185344,0.10255641967730757,0.0
-0.019869806750989764,0.06520960512275757,0.10249097376954243,0.0
-0.019884290681396802,0.06517715038980847,0.10239709644283014,0.0
-0.019863369448586635,0.06522730770436617,0.10242821007111193,0.0
-0.019860955460185462,0.06519082965741511,0.1026765826554993,0.0
-0.01984405754137725,0.06523025813463428,0.10260764987559913,0.0
-0.01984325287857686,0.06526619973971841,0.10254810482837019,0.0
-0.019861223681118926,0.06522569837876539,0.10253925353756589,0.0
-0.019839497785508368,0.06522757592529964,0.10254783660743673,0.0
-0.019852908832181552,0.0652315992393016,0.1025081399092841,0.0
-0.01987758515806021,0.06526298108851684,0.1024550321644583,0.0
-0.019756885738001554,0.06525305691397869,0.1024845364671393,0.0
-0.01982662318070211,0.06523589077423701,0.10255266458423908,0.0
-0.01991808651901323,0.06514764608712746,0.10255212814237215,0.0
-0.01987329362312479,0.06525547090237986,0.10251967340942304,0.0
-0.019852640611248088,0.06527156415838768,0.10254837304930366,0.0
-0.019860687239252,0.065243400960374,0.10251082211861874,0.0
-0.019849690180979988,0.06522033396009612,0.1025295975839612,0.0
-0.019853981715915407,0.06526432219318416,0.10255239636330561,0.0
-0.019866051657921272,0.06524474206504131,0.10253978997943282,0.0
-0.019860687239252,0.06522972169276735,0.10252825647929388,0.0
-0.019848080855379206,0.06524983826277712,0.10256661207277919,0.0
-0.01985720036711697,0.06526593151878494,0.10256956250304729,0.0
-0.01986444233232049,0.06527934256545813,0.10255749256104142,0.0
-0.019861760122985853,0.06526512685598455,0.10254649550276941,0.0
-0.019878658041794065,0.0652522522511783,0.10253710777009818,0.0
-0.01987758515806021,0.06527263704212154,0.10254703194463634,0.0
-0.01986444233232049,0.0652425962975736,0.10255507857264025,0.0
-0.019840838890175686,0.06524688783250902,0.10255507857264025,0.0
-0.019852908832181552,0.06527102771652075,0.10254220396783399,0.0
-0.01984539864604457,0.06526727262345226,0.10253147513049544,0.0
-0.01985129950658077,0.06527210060025461,0.10233594207000042,0.0
-0.01986444233232049,0.06519485297141707,0.10230160979051707,0.0
-0.019871416076590546,0.06516749443620377,0.10271091493498265,0.0
-0.01984405754137725,0.06527263704212154,0.10262454779440734,0.0
-0.019838693122707977,0.065272905263055,0.10262052448040539,0.0
-0.019831451157504457,0.0652552026814464,0.10261167318960109,0.0
-0.019842179994843005,0.06522033396009612,0.10259745748012751,0.0
-0.019848617297246133,0.06527075949558729,0.10256446630531148,0.0
-0.019862028343919317,0.06524876537904327,0.10252584249089271,0.0
-0.019854786378715798,0.06527129593745422,0.10257331759611578,0.0
-0.019856932146183507,0.06521175089022528,0.10261811049200421,0.0
-0.01985210416938116,0.06526378575131724,0.1024963381882117,0.0
-0.019882144913929093,0.06529409471679863,0.10242740540831154,0.0
-0.019885363565130657,0.06523723187890433,0.10263474018987896,0.0
-0.019878121599927138,0.0652366954370374,0.10265056522495332,0.0
-0.019880267367394847,0.06523830476263819,0.10256929428211382,0.0
-0.019896092402469204,0.0652101415646245,0.1025679531774465,0.0
-0.019881608472062166,0.06527236882118807,0.10241104393137025,0.0
-0.019881340251128702,0.06527451458865578,0.10246790676926455,0.0
-0.019870074971923227,0.06528443876319394,0.1027704599822116,0.0
-0.0198724889603244,0.06524688783250902,0.10260818631746606,0.0
-0.01987383006499172,0.06530080024013522,0.10259262950332516,0.0
-0.01987168429752401,0.0653053599960041,0.1025746587007831,0.0
-0.01981938121549859,0.06531421128680841,0.10259102017772438,0.0
-0.019786121819749095,0.06527692857705696,0.10252986580489466,0.0
-0.019870074971923227,0.06522140684382997,0.10253764421196511,0.0
-0.01986578343698781,0.0653120655193407,0.10255346924703947,0.0
-0.0198783898208606,0.06526646796065187,0.10251645475822148,0.0
-0.01987034319285669,0.06525493446051293,0.10251672297915494,0.0
-0.019869270309122836,0.06524447384410785,0.10252611071182617,0.0
-0.019871147855657082,0.06523535433237009,0.10258109600318623,0.0
-0.019865515216054345,0.06525734844891411,0.10251618653728801,0.0
-0.019842179994843005,0.06523884120450511,0.10246227412966182,0.0
-0.01986524699512088,0.06520236315755405,0.10259343416612555,0.0
-0.019892337309400713,0.06517607750607461,0.10258485109625472,0.0
-0.019848617297246133,0.06522650304156578,0.10234667090733897,0.0
-0.01983681557617373,0.06520880045995718,0.10247005253673226,0.0
-0.019853981715915407,0.06517875971540925,0.10258726508465589,0.0
-0.019886704669797976,0.06517661394794154,0.10249821573474595,0.0
-0.019872757181257864,0.0651827830294112,0.10254676372370287,0.0
-0.01984915373911306,0.06521818819262841,0.10266585381816075,0.0
-0.019841375332042614,0.0652042407040883,0.10258672864278896,0.0
-0.019864710553253954,0.06521577420422724,0.10251618653728801,0.0
-0.019873561844058255,0.06524742427437595,0.102505189479016,0.0
-0.019851567727514233,0.06520263137848752,0.10254810482837019,0.0
-0.019852908832181552,0.06518975677368126,0.10251377254888684,0.0
-0.019863905890453563,0.06520155849475366,0.10249848395567941,0.0
-0.019860687239252,0.06524957004184366,0.1025295975839612,0.0
-0.019887241111664903,0.06514979185459517,0.10251511365355416,0.0
-0.019871147855657082,0.06519994916915288,0.10256392986344455,0.0
-0.019853981715915407,0.06521765175076148,0.10252611071182617,0.0
-0.019827427843502502,0.06525386157677908,0.10240675239643483,0.0
-0.01985559104151619,0.06526432219318416,0.10243840246658355,0.0
-0.01986015079738507,0.06524527850690824,0.10271332892338382,0.0
-0.01987329362312479,0.06521523776236031,0.10263956816668131,0.0
-0.019863369448586635,0.0651865381224797,0.10263393552707857,0.0
-0.019826354959768647,0.06522945347183388,0.10258914263119014,0.0
-0.01987168429752401,0.06514308633125858,0.10251511365355416,0.0
-0.019866319878854736,0.065176882168875,0.10259370238705902,0.0
-0.019857468588050434,0.0651827830294112,0.10255051881677137,0.0
-0.01984700797164535,0.0652130919948926,0.10250358015341522,0.0
-0.019842179994843005,0.06521389665769299,0.10256151587504338,0.0
-0.019840570669242222,0.06519485297141707,0.10256527096811187,0.0
-0.01985639570431658,0.06517875971540925,0.10252020985128997,0.0
-0.019855859262449652,0.06516937198273802,0.10240970282670293,0.0
-0.019849421960046524,0.06518144192474389,0.10255856544477528,0.0
-0.019847544413512278,0.06522301616943076,0.10255668789824103,0.0
-0.019852640611248088,0.06524661961157556,0.10254059464223321,0.0
-0.01988697289073144,0.06517339529673997,0.10252584249089271,0.0
-0.019869002088189373,0.06523025813463428,0.10257197649144846,0.0
-0.01987758515806021,0.0652160424251607,0.10248695045554047,0.0
-0.019866319878854736,0.06526673618158534,0.10234532980267165,0.0
-0.01989421485593496,0.06518519701781238,0.10250277549061483,0.0
-0.019895287739668813,0.06516910376180456,0.1026100638640003,0.0
-0.01990306614673926,0.06517419995954037,0.10254595906090248,0.0
-0.019845130425111105,0.0651865381224797,0.10251833230475572,0.0
-0.019889655100066076,0.06519002499461472,0.10246173768779489,0.0
-0.019884290681396802,0.06522355261129768,0.10251886874662265,0.0
-0.019908430565408534,0.0651983398435521,0.10248400002527237,0.0
-0.01990735768167468,0.06521684708796109,0.10243572025724891,0.0
-0.019907894123541606,0.06522972169276735,0.10242204098964226,0.0
-0.01988107203019524,0.06522730770436617,0.10251538187448762,0.0
-0.019856663925250043,0.06526459041411763,0.10244644909458746,0.0
-0.019866856320721663,0.0652847069841274,0.10253093868862852,0.0
-0.019884290681396802,0.06521738352982802,0.1025835099915874,0.0
-0.019891800867533786,0.06525252047211176,0.10253764421196511,0.0
-0.01990896700727546,0.06522435727409807,0.10254703194463634,0.0
-0.019886436448864512,0.06525922599544835,0.10258324177065394,0.0
-0.019862833006719708,0.06530401889133679,0.1025805595613193,0.0
-0.019871416076590546,0.06528417054226048,0.10255266458423908,0.0
-0.019874098285925183,0.06527800146079081,0.10254542261903556,0.0
-0.019858809692717753,0.06523213568116852,0.102678728422967,0.0
-0.01987678049525982,0.06522891702996696,0.10259933502666176,0.0
-0.019854518157782334,0.06530723754253835,0.10258431465438779,0.0
-0.01989206908846725,0.06517956437820964,0.10254837304930366,0.0
-0.019857468588050434,0.06529972735640137,0.10269750388830946,0.0
-0.0198636376695201,0.06526056710011567,0.10264895589935254,0.0
-0.019858809692717753,0.06530804220533874,0.1025746587007831,0.0
-0.01986578343698781,0.06526217642571645,0.10260818631746606,0.0
-0.019858809692717753,0.0652758556933231,0.10265995295762455,0.0
-0.01987973092552792,0.06523052635556774,0.10263232620147779,0.0
-0.019890191541933003,0.06525842133264796,0.10266799958562846,0.0
-0.01987758515806021,0.06528926673999629,0.10265646608548952,0.0
-0.019862833006719708,0.06530750576347182,0.10266504915536036,0.0
-0.01986819742538898,0.06527666035612349,0.10263849528294745,0.0
-0.019854518157782334,0.06527773323985735,0.10244054823405126,0.0
-0.019864710553253954,0.06524822893717634,0.10246576100179684,0.0
-0.01987758515806021,0.06528926673999629,0.10280023250582607,0.0
-0.019864978774187417,0.0652817565538593,0.10269079836497287,0.0
-0.019853981715915407,0.06526968661185344,0.10263018043401008,0.0
-0.019875707611525965,0.06527397814678886,0.10266263516695918,0.0
-0.019887509332598367,0.06527666035612349,0.10263661773641321,0.0
-0.019876244053392892,0.0653061646588045,0.1025199416303565,0.0
-0.01981133458749468,0.06530133668200215,0.102553201026106,0.0
-0.01983466980870602,0.06523320856490238,0.102678728422967,0.0
-0.01985424993684887,0.06532440368228003,0.10259128839865785,0.0
-0.019887509332598367,0.06527049127465383,0.10228471187170886,0.0
-0.019894483076868422,0.06530428711227025,0.10256044299130952,0.0
-0.019901725042071942,0.06529248539119785,0.10268194707416857,0.0
-0.019917818298079766,0.06532225791481232,0.10256071121224299,0.0
-0.01992237805394865,0.06534961645002561,0.10253603488636433,0.0
-0.019894483076868422,0.06533191386841701,0.10250948101395142,0.0
-0.019885095344197194,0.0653112608565403,0.1024904373276755,0.0
-0.019884558902330266,0.06532279435667925,0.10249258309514321,0.0
-0.01989367841406803,0.06532252613574578,0.10251216322328606,0.0
-0.019896092402469204,0.0653415698220217,0.10253710777009818,0.0
-0.019902529704872333,0.06533486429868511,0.10247809916473617,0.0
-0.019879194483660993,0.06529194894933092,0.10251591831635455,0.0
-0.01987678049525982,0.06534371558948941,0.10262883932934276,0.0
-0.01990306614673926,0.06530160490293561,0.1025709036077146,0.0
-0.019902529704872333,0.06531984392641114,0.10255239636330561,0.0
-0.01990896700727546,0.0653120655193407,0.1025687578402469,0.0
-0.019907894123541606,0.06531957570547768,0.10255534679357371,0.0
-0.019916477193412448,0.06525842133264796,0.10247595339726846,0.0
-0.01988348601859641,0.06533298675215087,0.10255373746797293,0.0
-0.019880803809261775,0.06531474772867533,0.10256446630531148,0.0
-0.019899042832737305,0.06530375067040332,0.10253496200263047,0.0
-0.019879462704594456,0.06532628122881427,0.10244510798992014,0.0
-0.01987678049525982,0.06527049127465383,0.10217822816112378,0.0
-0.019886436448864512,0.06523213568116852,0.10235552219814327,0.0
-0.019890191541933003,0.06524957004184366,0.10270742806284762,0.0
-0.01985049484378038,0.06527317348398846,0.10264493258535058,0.0
-0.019889386879132612,0.06528792563532897,0.10255132347957176,0.0
-0.019872220739390937,0.06528899851906282,0.10250948101395142,0.0
-0.019862564785786244,0.06525761666984757,0.10255507857264025,0.0
-0.019902529704872333,0.06525493446051293,0.10253603488636433,0.0
-0.01989716528620306,0.0652670044025188,0.10250760346741718,0.0
-0.019878121599927138,0.06527451458865578,0.10251162678141913,0.0
-0.019883754239529875,0.06527666035612349,0.10251457721168723,0.0
-0.019910576332876243,0.06521175089022528,0.10244698553645439,0.0
-0.019932302228486805,0.06518519701781238,0.10248560935087316,0.0
-0.01990682123980775,0.0652484971581098,0.10249606996727824,0.0
-0.01989582418153574,0.06526807728625265,0.10251886874662265,0.0
-0.01991111277474317,0.06529275361213131,0.10245476394352483,0.0
-0.019901188600205014,0.06531823460081036,0.10225252535969322,0.0
-0.01995456456596429,0.06522757592529964,0.10257278115424885,0.0
-0.019896897065269595,0.06532601300788081,0.10266826780656192,0.0
-0.019906284797940824,0.0653268176706812,0.10244457154805321,0.0
-0.01993122934475295,0.06530348244946986,0.10260604054999835,0.0
-0.019920500507414403,0.06530509177507064,0.1025325480142293,0.0
-0.019889655100066076,0.0653718787875031,0.10249982506034673,0.0
-0.01989582418153574,0.06533674184521936,0.1025266471536931,0.0
-0.019877316937126747,0.0652965087051998,0.10253147513049544,0.0
-0.019895287739668813,0.06525895777451489,0.10245851903659332,0.0
-0.019891800867533786,0.06535471264776142,0.10242901473391232,0.0
-0.01990601657700736,0.06534505669415673,0.10238341717522349,0.0
-0.019891532646600322,0.0653571266361626,0.10254703194463634,0.0
-0.0198695385300563,0.06536705081070075,0.10258190066598662,0.0
-0.019855859262449652,0.06537456099683774,0.1025982621429279,0.0
-0.019874366506858646,0.06539038603191209,0.10257814557291813,0.0
-0.019890191541933003,0.0653600770664307,0.10257868201478505,0.0
-0.01989287375126764,0.06537026946190232,0.10256124765410991,0.0
-0.019913258542210883,0.06534398381042288,0.10240058331496517,0.0
-0.019924255600482894,0.06538797204351092,0.1026108685268007,0.0
-0.019887509332598367,0.06538180296204125,0.10283080969224093,0.0
-0.01990601657700736,0.06537134234563617,0.10270689162098069,0.0
-0.019909771670075852,0.0653992373227164,0.10272593530725663,0.0
-0.019906284797940824,0.06542740052073008,0.10270742806284762,0.0
-0.01993203400755334,0.06536490504323304,0.10266290338789265,0.0
-0.019939812414623788,0.06533808294988667,0.10267121823683002,0.0
-0.019929351798218704,0.06533084098468316,0.10265995295762455,0.0
-0.019899847495537696,0.06538421695044243,0.10269053014403941,0.0
-0.019877048716193283,0.06542176788112734,0.10268999370217248,0.0
-0.019909771670075852,0.06532789055441506,0.10267443688803159,0.0
-0.01989716528620306,0.06535739485709606,0.10269455345804136,0.0
-0.019876244053392892,0.06538770382257746,0.10267041357402963,0.0
-0.01988187669299563,0.06535685841522913,0.10258806974745628,0.0
-0.019897701728069987,0.06536410038043265,0.10250679880461679,0.0
-0.01990896700727546,0.06533513251961857,0.10258163244505315,0.0
-0.019902529704872333,0.06542713229979662,0.1027060869581803,0.0
-0.019901188600205014,0.06537375633403734,0.10261408717800226,0.0
-0.01988482712326373,0.06536705081070075,0.10258967907305706,0.0
-0.019926669588884068,0.06537831608990623,0.1025805595613193,0.0
-0.019939544193690324,0.06535766307802952,0.1024630787924622,0.0
-0.019919427623680548,0.06537724320617237,0.10265727074828991,0.0
-0.019926669588884068,0.06536490504323304,0.10280693802916266,0.0
-0.019909235228208925,0.0653533715430941,0.10269053014403941,0.0
-0.019903602588606188,0.06531072441467338,0.10262642534094159,0.0
-0.019874902948725574,0.06538904492724477,0.10264171393414902,0.0
-0.019907089460741215,0.06535524908962835,0.102649224120286,0.0
-0.01987329362312479,0.06537912075270662,0.10263795884108053,0.0
-0.019894751297801886,0.06538502161324282,0.10255722434010796,0.0
-0.019874902948725574,0.06538582627604321,0.10256178409597684,0.0
-0.01987678049525982,0.06537026946190232,0.10264144571321555,0.0
-0.01986524699512088,0.06539709155524868,0.10271091493498265,0.0
-0.019879194483660993,0.06534210626388863,0.10265378387615488,0.0
-0.019889655100066076,0.06533191386841701,0.10264654191095136,0.0
-0.019933643333154123,0.06531474772867533,0.10262320668974002,0.0
-0.019948127263561162,0.06533084098468316,0.10257331759611578,0.0
-0.019925060263283285,0.06534693424069098,0.10237161545415109,0.0
-0.019953223461296972,0.06528148833292584,0.10259102017772438,0.0
-0.01995751499623239,0.06537804786897276,0.1028479758319826,0.0
-0.01994061707742418,0.06538153474110779,0.10263983638761477,0.0
-0.01992103694928133,0.06538099829924086,0.10263178975961086,0.0
-0.019933911554087587,0.06533030454281623,0.10271064671404918,0.0
-0.01993257044942027,0.0653415698220217,0.1026913348068398,0.0
-0.01992827891448485,0.06533835117082014,0.10268006952763432,0.0
-0.01994276284489189,0.06533996049642092,0.1026824835160355,0.0
-0.01992398737954943,0.06539440934591405,0.102697235667376,0.0
-0.019926401367950604,0.06535471264776142,0.10266129406229187,0.0
-0.019916477193412448,0.06536436860136612,0.1027224484351216,0.0
-0.019943299286758816,0.065320916810145,0.10269267591150712,0.0
-0.019913258542210883,0.06540540640418606,0.1026765826554993,0.0
-0.01988992332099954,0.06541559879965768,0.10262213380600617,0.0
-0.019890996204733394,0.0654139894740569,0.10268221529510203,0.0
-0.019922109833015185,0.06539735977618215,0.10281149778503154,0.0
-0.01993927597275686,0.06533218208935047,0.10269857677204332,0.0
-0.01992237805394865,0.06533405963588472,0.10272352131885545,0.0
-0.01989796994900345,0.06533835117082014,0.1028243723898378,0.0
-0.01992988824008563,0.06530482355413718,0.10276107224954037,0.0
-0.019907089460741215,0.06538502161324282,0.10277716550554819,0.0
-0.01988482712326373,0.06538180296204125,0.10274149212139752,0.0
-0.019899579274604232,0.06535498086869489,0.10255346924703947,0.0
-0.019936057321555296,0.06534371558948941,0.10262991221307662,0.0
-0.01993122934475295,0.06534881178722522,0.10287882123933093,0.0
-0.019916477193412448,0.06536114995016455,0.10282866392477322,0.0
-0.01992988824008563,0.0653777796480393,0.1027557078308711,0.0
-0.01990521191420697,0.0653630274966988,0.1027431014469983,0.0
-0.019904139030473115,0.06535498086869489,0.10278333458701785,0.0
-0.01994008063555725,0.06530938331000606,0.10272673997005702,0.0
-0.019952687019430045,0.06534559313602366,0.1027645591216754,0.0
-0.019950004810095408,0.06530857864720567,0.10272137555138773,0.0
-0.01993498443782144,0.06535203043842679,0.10277260574967931,0.0
-0.01989582418153574,0.06538689915977706,0.10266907246936231,0.0
-0.01986819742538898,0.06534344736855595,0.10269884499297678,0.0
-0.019867660983522054,0.06533137742655008,0.10276429090074193,0.0
-0.019879462704594456,0.06531662527520958,0.10270930560938187,0.0
-0.01989582418153574,0.06529516760053249,0.10270501407444645,0.0
-0.019917013635279375,0.0653083104262722,0.10267711909736622,0.0
-0.019874902948725574,0.06538636271791014,0.10255776078197489,0.0
-0.019840034227375295,0.0653777796480393,0.1023863676054916,0.0
-0.019907894123541606,0.06539387290404712,0.10282383594797087,0.0
-0.019935252658754905,0.06542123143926042,0.10283992920397869,0.0
-0.01993257044942027,0.06537375633403734,0.10268731149283784,0.0
-0.01992237805394865,0.0653954822296479,0.102619719817605,0.0
-0.019936861984355687,0.06538770382257746,0.10263634951547974,0.0
-0.019919964065547476,0.06536651436883383,0.1026130142942684,0.0
-0.01993927597275686,0.06531313840307455,0.1026647809344269,0.0
-0.01994222640302496,0.06538448517137589,0.10274363788886523,0.0
-0.01994142174022457,0.06539521400871444,0.10278708968008635,0.0
-0.019917013635279375,0.06541854922992578,0.1027468565400668,0.0
-0.019925864926083676,0.06543142383473204,0.10268570216723706,0.0
-0.019928547135418313,0.06542632763699623,0.10265753896922337,0.0
-0.019918622960880157,0.065398432659916,0.10270072253951103,0.0
-0.019950541251962335,0.0653533715430941,0.10265861185295723,0.0
-0.01992023228648094,0.06543303316033282,0.10248802333927433,0.0
-0.019925864926083676,0.06541881745085924,0.10256232053784377,0.0
-0.019949736589161944,0.06536410038043265,0.10279540452902372,0.0
-0.019944640391426134,0.06541533057872422,0.1027498069703349,0.0
-0.01996100186836742,0.0654161352415246,0.1027253988653897,0.0
-0.019935252658754905,0.06537456099683774,0.102734250156194,0.0
-0.019905748356073897,0.06539387290404712,0.10275651249367149,0.0
-0.01994517683329306,0.06531957570547768,0.10269804033017639,0.0
-0.019944908612359598,0.06538743560164399,0.10269213946964019,0.0
-0.019908430565408534,0.06538850848537785,0.1026854339463036,0.0
-0.01991728185621284,0.06540326063671835,0.1026315215386774,0.0
-0.019931497565686414,0.06536034528736416,0.1026344719689455,0.0
-0.019916208972478984,0.06538233940390818,0.10267095001589656,0.0
-0.01993122934475295,0.06540942971818801,0.10270581873724684,0.0
-0.019955637449698145,0.06542149966019388,0.10279299054062255,0.0
-0.01996690272890362,0.06532654944974774,0.10277233752874584,0.0
-0.01990387080953965,0.06541238014845611,0.10282276306423702,0.0
-0.019883217797662948,0.06543115561379857,0.10279540452902372,0.0
-0.01986015079738507,0.06537992541550701,0.10267631443456583,0.0
-0.01990440725140658,0.06542203610206081,0.10251618653728801,0.0
-0.019930156461019095,0.06545073574194142,0.10275839004020573,0.0
-0.019949200147295017,0.06538582627604321,0.10290403400707651,0.0
-0.01992023228648094,0.0654316920556655,0.10280318293609417,0.0
-0.019914599646878202,0.06548345869582399,0.10281337533156579,0.0
-0.019912185658477025,0.06551564520783963,0.10276911887754428,0.0
-0.01993337511222066,0.06547138875381812,0.10275034341220182,0.0
-0.019965829845169765,0.06542820518353047,0.10278923544755406,0.0
-0.019951882356629654,0.06549418753316254,0.10277448329621355,0.0
-0.019942494623958425,0.06548345869582399,0.1027460518772664,0.0
-0.019928010693551386,0.06551644987064002,0.10269589456270868,0.0
-0.019953223461296972,0.06546307390488075,0.10269482167897483,0.0
-0.01995590567063161,0.06548479980049131,0.10265271099242103,0.0
-0.01992398737954943,0.06547997182368896,0.1027208391095208,0.0
-0.01991111277474317,0.06548077648648935,0.10276402267980847,0.0
-0.019938739530889933,0.06547487562595315,0.10269669922550907,0.0
-0.019935789100621833,0.0654552954978103,0.10267711909736622,0.0
-0.019931765786619877,0.06542954628819779,0.1027253988653897,0.0
-0.019933911554087587,0.06540996616005494,0.10264117749228209,0.0
-0.019933106891287196,0.0653630274966988,0.10250089794408059,0.0
-0.01991379498407781,0.06543517892780053,0.10280130538955992,0.0
-0.01994276284489189,0.06536436860136612,0.10277421507528009,0.0
-0.019922646274882112,0.06547031587008427,0.1026049676662645,0.0
-0.01989072798379993,0.06542391364859505,0.10267685087643276,0.0
-0.019916477193412448,0.06542498653232891,0.10281873975023506,0.0
-0.019919964065547476,0.0654375929162017,0.10267899664390047,0.0
-0.019901456821138478,0.06545502727687684,0.10263903172481438,0.0
-0.01991245387941049,0.06542954628819779,0.10272781285379087,0.0
-0.019915672530612057,0.06544081156740326,0.10274766120286719,0.0
-0.01994142174022457,0.0654375929162017,0.10267470510896505,0.0
-0.019909771670075852,0.06546977942821734,0.10270876916751494,0.0
-0.019906553018874288,0.06542927806726433,0.10266317160882611,0.0
-0.019906553018874288,0.06542525475326237,0.10267738731829969,0.0
-0.019892337309400713,0.06542418186952852,0.10268006952763432,0.0
-0.019854786378715798,0.06542176788112734,0.10264573724815097,0.0
-0.019835742692439876,0.06537858431083969,0.10244135289685165,0.0
-0.019884290681396802,0.06547755783528779,0.10265861185295723,0.0
-0.019900383937404623,0.06546387856768114,0.10273907813299635,0.0
-0.019904675472340042,0.06546575611421539,0.10272030266765388,0.0
-0.01990226148393887,0.0654375929162017,0.10274068745859713,0.0
-0.019923719158615967,0.06540647928791991,0.10277287397061277,0.0
-0.019914063205011275,0.06541345303218997,0.10277126464501199,0.0
-0.019905748356073897,0.06543035095099818,0.1027704599822116,0.0
-0.019896628844336132,0.06540647928791991,0.10275973114487305,0.0
-0.019899579274604232,0.06544671242793947,0.10267175467869695,0.0
-0.01991111277474317,0.0654590505908788,0.10262883932934276,0.0
-0.019888850437265685,0.06544403021860483,0.10274176034233098,0.0
-0.019870074971923227,0.06541935389272617,0.10278950366848752,0.0
-0.019864174111387026,0.06546307390488075,0.10272191199325466,0.0
-0.01984486220417764,0.06543356960219975,0.10261462361986919,0.0
-0.01987034319285669,0.06540889327632109,0.10249258309514321,0.0
-0.0198665880997882,0.06542391364859505,0.10255829722384181,0.0
-0.019883754239529875,0.065464951451415,0.10281337533156579,0.0
-0.01988402246046334,0.06547407096315276,0.10274953874940143,0.0
-0.0198783898208606,0.06544563954420561,0.10273076328405897,0.0
-0.01988858221633222,0.06544537132327215,0.10274846586566758,0.0
-0.01988992332099954,0.06545770948621148,0.10279459986622333,0.0
-0.01990682123980775,0.06541720812525846,0.10273103150499244,0.0
-0.019913258542210883,0.06542123143926042,0.10267685087643276,0.0
-0.01991594075154552,0.06539172713657941,0.10270072253951103,0.0
-0.019864174111387026,0.0654915053238279,0.10270125898137795,0.0
-0.019869002088189373,0.06548024004462243,0.10269374879524097,0.0
-0.019886168227931048,0.06551537698690617,0.1026846292835032,0.0
-0.019885095344197194,0.06550464814956762,0.10267899664390047,0.0
-0.019888313995398758,0.06546977942821734,0.10273076328405897,0.0
-0.01988697289073144,0.06547165697475159,0.10269535812084175,0.0
-0.019872220739390937,0.06550089305649913,0.10268945726030555,0.0
-0.019873025402191328,0.06547487562595315,0.1026610258413584,0.0
-0.01987597583245943,0.06542069499739349,0.10246790676926455,0.0
-0.019882949576729484,0.06542632763699623,0.10262964399214315,0.0
-0.019880803809261775,0.0655218142893093,0.10290537511174383,0.0
-0.019897701728069987,0.06547568028875354,0.10284609828544836,0.0
-0.019906284797940824,0.06550062483556567,0.10278387102888478,0.0
-0.019869806750989764,0.06548104470742282,0.10275436672620378,0.0
-0.01987087963472362,0.06547326630035237,0.10269830855110985,0.0
-0.019900652158338087,0.06547889893995511,0.10271306070245036,0.0
-0.0198636376695201,0.06549552863782986,0.10278387102888478,0.0
-0.01990226148393887,0.06546817010261656,0.10279057655222137,0.0
-0.019904943693273506,0.06547112053288466,0.10275892648207266,0.0
-0.01987892626272753,0.0655247647195774,0.10278118881955015,0.0
-0.019856663925250043,0.0654561001606107,0.10273237260965976,0.0
-0.01985210416938116,0.06545502727687684,0.10275302562153646,0.0
-0.019884290681396802,0.06550303882396684,0.1026344719689455,0.0
-0.019887241111664903,0.06550169771929952,0.10250974923488489,0.0
-0.019893946635001495,0.06546870654448349,0.10275678071460495,0.0
-0.019873025402191328,0.06549391931222907,0.10283000502944054,0.0
-0.019891532646600322,0.06547138875381812,0.1027704599822116,0.0
-0.019892337309400713,0.06552261895210969,0.10277448329621355,0.0
-0.01990226148393887,0.06554863638265566,0.10287104283226048,0.0
-0.019899579274604232,0.06554783171985527,0.1027940634243564,0.0
-0.01988053558832831,0.06558833308080829,0.10275624427273802,0.0
-0.019875171169659037,0.06563232131389633,0.10265324743428796,0.0
-0.01989716528620306,0.06560093946468108,0.10277501973808048,0.0
-0.019914063205011275,0.06553871220811751,0.10282169018050316,0.0
-0.019878121599927138,0.06560952253455192,0.10282598171543858,0.0
-0.019874098285925183,0.06560871787175153,0.10281873975023506,0.0
-0.019879999146461384,0.06558806485987483,0.10278467569168517,0.0
-0.01990306614673926,0.06557438559226818,0.10276509556354232,0.0
-0.01990387080953965,0.06554756349892181,0.10277582440088087,0.0
-0.01987973092552792,0.06558779663894136,0.10274229678419791,0.0
-0.01988697289073144,0.06554568595238756,0.10253925353756589,0.0
-0.019898506390870378,0.06555748767345997,0.10263232620147779,0.0
-0.019949200147295017,0.06552288717304315,0.10286085043678886,0.0
-0.01993203400755334,0.06557894534813706,0.10272486242352277,0.0
-0.01989582418153574,0.06557036227826622,0.10283563766904327,0.0
-0.019874366506858646,0.06550598925423494,0.10283966098304523,0.0
-0.019888313995398758,0.0655210096265089,0.10276777777287696,0.0
-0.019893946635001495,0.06562829799989438,0.10280184183142685,0.0
-0.01988348601859641,0.0655875284180079,0.10277314219154624,0.0
-0.019897433507136523,0.06553254312664784,0.1027616086914073,0.0
-0.01988911865819915,0.0655483681617222,0.10275624427273802,0.0
-0.019850763064713842,0.06553871220811751,0.102800768947693,0.0
-0.019885363565130657,0.06549230998662829,0.1027793112730159,0.0
-0.019936861984355687,0.06547916716088857,0.10270876916751494,0.0
-0.019893141972201104,0.06559530682507834,0.10277582440088087,0.0
-0.019890459762866467,0.06552020496370851,0.10277797016834858,0.0
-0.019880803809261775,0.0655306655801136,0.10248936444394165,0.0
-0.019873025402191328,0.06553281134758131,0.10265056522495332,0.0
-0.019866856320721663,0.06551242655663807,0.10299308335698645,0.0
-0.019862833006719708,0.06548989599822712,0.10285146270411763,0.0
-0.01985344527404848,0.06556204742932885,0.10278306636608439,0.0
-0.019860955460185462,0.0655513185919903,0.10279191765688869,0.0
-0.01985720036711697,0.06555561012692572,0.10282759104103936,0.0
-0.019876512274326356,0.0655542690222584,0.10275999936580651,0.0
-0.019880803809261775,0.06558216399933862,0.10271091493498265,0.0
-0.019905748356073897,0.06551162189383768,0.10268892081843863,0.0
-0.0198636376695201,0.06553817576625058,0.1027704599822116,0.0
-0.019859614355518144,0.06555373258039147,0.10279540452902372,0.0
-0.019890996204733394,0.06552342361491008,0.10276536378447579,0.0
-0.019891800867533786,0.06553737110345019,0.10278333458701785,0.0
-0.01985639570431658,0.06558109111560477,0.10278440747075171,0.0
-0.01987087963472362,0.065560974545595,0.10273827347019596,0.0
-0.01987678049525982,0.06552127784744237,0.10276590022634272,0.0
-0.01988402246046334,0.0655159134287731,0.10275758537740534,0.0
-0.019910576332876243,0.06540540640418606,0.10270260008604527,0.0
-0.01989287375126764,0.06544322555580444,0.10275946292393959,0.0
-0.01988482712326373,0.06554434484772025,0.10269348057430751,0.0
-0.019879462704594456,0.06551779097530734,0.10252476960715885,0.0
-0.019860687239252,0.0655727762666674,0.10286541019265774,0.0
-0.019853981715915407,0.06556285209212924,0.10286165509958925,0.0
-0.019843789320443787,0.06552315539397661,0.10281417999436618,0.0
-0.01988858221633222,0.06550572103330148,0.1027763608427478,0.0
-0.019908698786341997,0.06551832741717427,0.1027216437723212,0.0
-0.01988992332099954,0.06556821651079851,0.10266585381816075,0.0
-0.01985639570431658,0.06550893968450304,0.10263393552707857,0.0
-0.019874098285925183,0.06553039735918013,0.10273264083059322,0.0
-0.019918354739946693,0.06549928373089835,0.10282356772703741,0.0
-0.019928547135418313,0.06548158114928974,0.1027852121335521,0.0
-0.01988911865819915,0.06550652569610187,0.10277019176127813,0.0
-0.019815894343363564,0.06552798337077896,0.10279057655222137,0.0
-0.0198185765526982,0.06550008839369874,0.1026765826554993,0.0
-0.019903334367672724,0.06550169771929952,0.1026521745505541,0.0
-0.01985854147178429,0.0655757266969355,0.10268597038817052,0.0
-0.019871416076590546,0.06557089872013315,0.1028812352277321,0.0
-0.01988911865819915,0.06553898042905097,0.10292736922828785,0.0
-0.019898506390870378,0.06546629255608231,0.10288928185573601,0.0
-0.01990682123980775,0.06547568028875354,0.10285736356465383,0.0
-0.019899847495537696,0.06553012913824667,0.10271949800485349,0.0
-0.01986739276258859,0.065494455754096,0.10272888573752473,0.0
-0.019904139030473115,0.06549955195183181,0.10274846586566758,0.0
-0.019928547135418313,0.06548533624235824,0.10281149778503154,0.0
-0.01991808651901323,0.0654641467886146,0.10276294979607462,0.0
-0.019914331425944738,0.06543061917193164,0.10281739864556774,0.0
-0.019908430565408534,0.06552610582424472,0.10284824405291607,0.0
-0.01994142174022457,0.0655188638590412,0.1028664830763916,0.0
-0.019919427623680548,0.06554300374305293,0.10288150344866556,0.0
-0.01991728185621284,0.06553334778944823,0.10286460552985735,0.0
-0.019899042832737305,0.0655100125682369,0.10287962590213132,0.0
-0.019903334367672724,0.06554997748732298,0.10282410416890433,0.0
-0.019900383937404623,0.06553012913824667,0.10285146270411763,0.0
-0.01990816234447507,0.06552261895210969,0.10290510689081037,0.0
-0.019892337309400713,0.06552208251024276,0.1028605822158554,0.0
-0.01991299032127742,0.06553790754531712,0.10286675129732506,0.0
-0.019928547135418313,0.0655875284180079,0.10277448329621355,0.0
-0.019938739530889933,0.06553173846384745,0.1028576317855873,0.0
-0.019928547135418313,0.0655601698827946,0.10288981829760294,0.0
-0.01992988824008563,0.06555078215012337,0.10263956816668131,0.0
-0.01994142174022457,0.06554622239425449,0.10290913020481232,0.0
-0.01994517683329306,0.06556821651079851,0.10295365487976729,0.0
-0.019967439170770547,0.06552717870797857,0.10286675129732506,0.0
-0.01994651793796038,0.06553281134758131,0.10285602245998651,0.0
-0.019927742472617922,0.0655542690222584,0.10276831421474389,0.0
-0.01992237805394865,0.06557465381320164,0.10283697877371059,0.0
-0.01990816234447507,0.06554488128958717,0.10297216212417629,0.0
-0.019914331425944738,0.06553683466158326,0.10288177166959903,0.0
-0.0199626111939682,0.06549579685876332,0.10285065804131724,0.0
-0.019923719158615967,0.06548721378889248,0.10292415057708629,0.0
-0.019915672530612057,0.06544134800927019,0.10288391743706674,0.0
-0.01993042468195256,0.06554005331278483,0.102859777553055,0.0
-0.019961538310234346,0.06552530116144432,0.10287935768119785,0.0
-0.01998514175237915,0.0655180591962408,0.10287613902999629,0.0
-0.01996100186836742,0.06555748767345997,0.10287667547186322,0.0
-0.019957246775298927,0.0655336160103817,0.10289142762320372,0.0
-0.0199478590426277,0.06554005331278483,0.10289437805347182,0.0
-0.019961270089300882,0.06553790754531712,0.1027557078308711,0.0
-0.01992398737954943,0.06557331270853432,0.10268328817883589,0.0
-0.019917818298079766,0.06556633896426427,0.10307462252075941,0.0
-0.019971462484772502,0.06559101529014293,0.10305209196234846,0.0
-0.01996690272890362,0.06553012913824667,0.10290725265827808,0.0
-0.019978168008109094,0.0655513185919903,0.10281605754090042,0.0
-0.02000552654332239,0.06557223982480047,0.1029107395304131,0.0
-0.020004990101455462,0.06558940596454214,0.10291610394908238,0.0
-0.019997748136251943,0.06557089872013315,0.10291556750721545,0.0
-0.019965293403302838,0.0655786771272036,0.10295499598443461,0.0
-0.019995870589717697,0.06551376766130539,0.10287989412306478,0.0
-0.019985409973312614,0.06554595417332103,0.10287211571599433,0.0
-0.019984873531445686,0.06554407662678678,0.10283831987837791,0.0
-0.019996407031584625,0.06552932447544628,0.10286299620425657,0.0
-0.020005258322388926,0.0654590505908788,0.10285924111118808,0.0
-0.02000552654332239,0.06546146457927997,0.1028361741109102,0.0
-0.019967975612637474,0.0656266886742936,0.10267846020203354,0.0
-0.019994797705983842,0.0655993301390803,0.10272620352819009,0.0
-0.020000162124653116,0.06559772081347952,0.10300756728739349,0.0
-0.019980313775576804,0.06555882877812728,0.10294775401923109,0.0
-0.019995065926917306,0.06557170338293354,0.10294319426336221,0.0
-0.019978436229042558,0.0656119365229531,0.10306818521835628,0.0
-0.019998821019985798,0.0655808228946713,0.10300568974085925,0.0
-0.020009549857324345,0.06555587834785918,0.10286460552985735,0.0
-0.019972267147572893,0.06559959836001376,0.10294292604242875,0.0
-0.020034494404136467,0.06554193085931907,0.10296947991484165,0.0
-0.020017596485328255,0.06555668301065957,0.10289250050693757,0.0
-0.01999828457811887,0.06559316105761064,0.10287748013466361,0.0
-0.020008745194523954,0.06559611148787874,0.10276509556354232,0.0
-0.01999238371758267,0.06551457232410578,0.10288686786733484,0.0
-0.019975485798774457,0.0655247647195774,0.10317386426614097,0.0
-0.020037444834404568,0.06558350510400594,0.10298450028711562,0.0
-0.020023229124930993,0.0656207878137574,0.10292120014681819,0.0
-0.02001491427599362,0.0656081814298846,0.10294292604242875,0.0
-0.019993724822249988,0.06560308523214879,0.10294051205402757,0.0
-0.02000123500838697,0.06558645553427404,0.10290135179774187,0.0
-0.020011695624792054,0.06558243222027209,0.10276536378447579,0.0
-0.020023497345864456,0.0655277151498455,0.10287560258812936,0.0
-0.02003985882280574,0.0655070621379688,0.10311351455611165,0.0
-0.020019742252795965,0.06562695689522706,0.10299657022912148,0.0
-0.019992115496649206,0.065619983150957,0.10303787625287489,0.0
-0.01999747991531848,0.0655816275574717,0.10302312410153439,0.0
-0.02001732826439479,0.06559879369721337,0.10296009218217042,0.0
-0.020012232066658982,0.06559021062734254,0.10298289096151483,0.0
-0.02000552654332239,0.06559557504601181,0.10299335157791992,0.0
-0.020023229124930993,0.06560442633681611,0.1029735032288436,0.0
-0.02002296090399753,0.06561005897641885,0.10296867525204126,0.0
-0.020012500287592445,0.06559235639481024,0.10297457611257746,0.0
-0.020006867647989708,0.0655395168709179,0.10277099642407853,0.0
-0.019906284797940824,0.06566397138404506,0.10273103150499244,0.0
-0.019978436229042558,0.06566423960497852,0.10321436562709399,0.0
-0.02000338077585468,0.06562749333709399,0.10314731039372807,0.0
-0.019988360403580714,0.06562910266269477,0.10293595229815869,0.0
-0.020010890961991663,0.06561005897641885,0.1028930369488045,0.0
-0.019987823961713787,0.06570688673339925,0.10303009784580444,0.0
-0.019973876473173675,0.0656969625588611,0.10301910078753243,0.0
-0.01999399304318345,0.06563017554642862,0.10298986470578489,0.0
-0.01999023795011496,0.06566263027937774,0.10304645932274573,0.0
-0.02003905416000535,0.0656481463489707,0.10301105415952852,0.0
-0.0200645351486844,0.06561542339508812,0.10292307769335243,0.0
-0.02001786470626172,0.06564707346523685,0.10300327575245807,0.0
-0.02002296090399753,0.06570715495433271,0.10300703084552656,0.0
-0.020031275752934903,0.06563714929069868,0.10296304261243852,0.0
-0.020045223241475014,0.06566128917471042,0.10292173658868511,0.0
-0.020032348636668758,0.06572378465220746,0.10295124089136612,0.0
-0.020011963845725518,0.06572297998940707,0.10298503672898254,0.0
-0.020001771450253898,0.06573022195461059,0.10299952065938958,0.0
-0.02004495502054155,0.06574738809435227,0.10294882690296495,0.0
-0.020050587660144288,0.06570849605900003,0.10288740430920176,0.0
-0.02004495502054155,0.06568757482618987,0.10287131105319394,0.0
-0.020072849997621774,0.06571895667540512,0.10287962590213132,0.0
-0.02004844189267658,0.06577581951329942,0.10285441313438573,0.0
-0.020060511834682444,0.06568381973312137,0.1026374223992136,0.0
-0.020099403870034678,0.06565056033737188,0.10288794075106869,0.0
-0.0200763368697568,0.06564170904656756,0.10305799282288466,0.0
-0.020055415636946634,0.06571412869860277,0.10289732848373992,0.0
-0.02007687331162373,0.06571251937300199,0.10278118881955015,0.0
-0.020032885078535685,0.06575141140835422,0.10310359038157349,0.0
-0.020026447776132557,0.0657146651404697,0.10305906570661852,0.0
-0.020064803369617863,0.06569481679139338,0.10284368429704718,0.0
-0.020068558462686355,0.06570930072180042,0.10300166642685729,0.0
-0.02006963134642021,0.0657028634193973,0.10304780042741304,0.0
-0.02004790545080965,0.06562051959282393,0.10296894347297472,0.0
-0.020057829625347808,0.06558484620867326,0.10301910078753243,0.0
-0.020037981276271495,0.0657559711642231,0.10289330516973796,0.0
-0.020040395264672668,0.065705009186865,0.10276804599381043,0.0
-0.020067753799885964,0.06566477604684545,0.10314811505652846,0.0
-0.020026447776132557,0.06568864770992372,0.10312477983531712,0.0
-0.020022692683064065,0.06567899175631903,0.10303519404354025,0.0
-0.020070167788287137,0.06571707912887087,0.10298825538018411,0.0
-0.02006238938121669,0.0657020587565969,0.10295338665883383,0.0
-0.020013036729459373,0.06573370882674562,0.10303009784580444,0.0
-0.02002081513652982,0.06574604698968495,0.1030931297651684,0.0
-0.020062657602150154,0.06568650194245601,0.10295553242630154,0.0
-0.020038785939071886,0.06565914340724271,0.1029979113337888,0.0
-0.02000928163639088,0.06572753974527595,0.10299415624072031,0.0
-0.020033689741336076,0.06571439691953623,0.10297269856604321,0.0
-0.02002081513652982,0.06572834440807634,0.10317010917307248,0.0
-0.02001786470626172,0.06574309655941685,0.10316018499853433,0.0
-0.020022156241197138,0.06568945237272411,0.10307891405569483,0.0
-0.020011695624792054,0.06573719569888065,0.10308535135809796,0.0
-0.020045759683341942,0.06573773214074757,0.1030783776138279,0.0
-0.020023229124930993,0.06574068257101567,0.10295499598443461,0.0
-0.020020278694662892,0.06570313164033076,0.10281015668036422,0.0
-0.020004453659588535,0.06570903250086696,0.10333104173315069,0.0
-0.020013841392259764,0.06571922489633858,0.10325701275551472,0.0
-0.02004790545080965,0.06568623372152255,0.10310654081184159,0.0
-0.02004924655547697,0.0656170327206889,0.10311029590491008,0.0
-0.020023497345864456,0.06567470022138361,0.10312799848651868,0.0
-0.020003648996788144,0.06586004088640701,0.10311995185851477,0.0
-0.020011695624792054,0.06575141140835422,0.10310519970717427,0.0
-0.019993456601316524,0.06579083988557338,0.10310332216064003,0.0
-0.02002457022959831,0.06572378465220746,0.10310305393970656,0.0
-0.020013304950392836,0.06571305581486891,0.10325352588337969,0.0
-0.020015182496927082,0.06575623938515657,0.1032224122550979,0.0
-0.020028325322666803,0.0657117147102016,0.10316769518467131,0.0
-0.020008208752657027,0.06574497410595109,0.10321919360389634,0.0
-0.020005794764255853,0.065771527978364,0.10316930451027209,0.0
-0.020000966787453507,0.06572297998940707,0.10316957273120556,0.0
-0.019949200147295017,0.06573209950114484,0.1029831591824483,0.0
-0.019994797705983842,0.06572110244287283,0.10298879182205103,0.0
-0.020018401148128646,0.06575489828048925,0.10340426604798628,0.0
-0.020035567287870322,0.0657538253967554,0.1032578174183151,0.0
-0.020043882136807696,0.06571815201260472,0.10319103040588265,0.0
-0.020074459323222556,0.06567014046551473,0.10314677395186114,0.0
-0.02003395796226954,0.0656969625588611,0.10314167775412533,0.0
-0.020010086299191272,0.06578198859476908,0.10316286720786896,0.0
-0.02000981807825781,0.06572190710567322,0.1031389955447907,0.0
-0.020021351578396747,0.0656347353022975,0.10315213837053042,0.0
-0.020026984217999484,0.06575328895488847,0.10318807997561455,0.0
-0.020012500287592445,0.06583590100239528,0.10316474475440321,0.0
-0.02005729318348088,0.06576026269915852,0.10312746204465176,0.0
-0.02004844189267658,0.06573558637327986,0.10316474475440321,0.0
-0.020054610974146243,0.06572244354754014,0.10296036040310388,0.0
-0.02003476262506993,0.06581015179278277,0.10296492015897277,0.0
-0.020035030846003395,0.06576455423409394,0.10342223685052834,0.0
-0.02004415035774116,0.06575516650142271,0.10323340931336991,0.0
-0.02003395796226954,0.06577099153649707,0.10319344439428382,0.0
-0.020037176613471104,0.06576455423409394,0.10314891971932885,0.0
-0.020019205810929037,0.06574926564088651,0.10312612093998444,0.0
-0.02001491427599362,0.06578869411810567,0.10315052904492963,0.0
-0.02004200459027345,0.06579539964144226,0.10308830178836606,0.0
-0.020045223241475014,0.06577340552489824,0.10311378277704511,0.0
-0.020057829625347808,0.06578145215290215,0.10308374203249718,0.0
-0.02005729318348088,0.06576911398996282,0.10296679770550701,0.0
-0.02005300164854546,0.06578976700183953,0.10306443012528779,0.0
-0.02003905416000535,0.06581444332771819,0.10321436562709399,0.0
-0.02002752065986641,0.0658578951189393,0.10322509446443254,0.0
-0.020040931706539596,0.06582865903719176,0.1030960801954365,0.0
-0.02005648852068049,0.06570098587286305,0.10299898421752265,0.0
-0.020059975392815517,0.0657382685826145,0.10293970739122718,0.0
-0.020040663485606132,0.06583590100239528,0.10315857567293354,0.0
-0.020040931706539596,0.06576348135036009,0.1033449892216908,0.0
-0.020043882136807696,0.065801032281045,0.10326371827885131,0.0
-0.020068022020819427,0.06580237338571232,0.10324574747630924,0.0
-0.020076068648823338,0.06583965609546377,0.103225362685366,0.0
-0.020078214416291047,0.0658136386649178,0.10321865716202941,0.0
-0.02005943895094859,0.06580532381598042,0.10320283212695505,0.0
-0.02003905416000535,0.06580344626944618,0.10320524611535623,0.0
-0.0200586342881482,0.06582490394412327,0.10321302452242667,0.0
-0.02009886742816775,0.06580881068811545,0.10317279138240712,0.0
-0.020091357242030768,0.06579995939731115,0.10317574181267522,0.0
-0.020077409753490656,0.0658283908162583,0.10317896046387678,0.0
-0.020099940311901605,0.06585601757240506,0.10311566032357936,0.0
-0.02009296656763155,0.06585011671186886,0.10307515896262634,0.0
-0.02010610939337127,0.06581149289745009,0.10310090817223885,0.0
-0.020109596265506298,0.06582302639758902,0.10311726964918014,0.0
-0.020133199707651102,0.06574309655941685,0.10306389368342087,0.0
-0.020114692463242108,0.06581122467651662,0.10280801091289651,0.0
-0.02008572460242803,0.06580290982757925,0.10283751521557752,0.0
-0.020111742032974007,0.06578896233903914,0.10319827237108617,0.0
-0.02007472754415602,0.06591744016616824,0.10327015558125444,0.0
-0.02009001613736345,0.06584394763039919,0.10322911777843449,0.0
-0.020102890742169706,0.06579995939731115,0.10325728097644818,0.0
-0.02010235430030278,0.06579620430424266,0.10324842968564388,0.0
-0.02009886742816775,0.06584931204906846,0.10316394009160282,0.0
-0.020102622521236242,0.06584099720013109,0.10314918794026232,0.0
-0.02010745049803859,0.06583375523492757,0.10307810939289444,0.0
-0.020099403870034678,0.06583375523492757,0.10305396950888271,0.0
-0.02011040092830669,0.06585118959560271,0.10318191089414488,0.0
-0.02010986448643976,0.06588069389828372,0.10310815013744237,0.0
-0.020112278474840935,0.06590134691016042,0.10311244167237779,0.0
-0.020107718718972052,0.06583858321172992,0.10320712366189047,0.0
-0.02012568952151412,0.06585306714213696,0.1031411413122584,0.0
-0.020123275533112946,0.06585843156080623,0.10314462818439343,0.0
-0.02012863995178222,0.06583053658372601,0.10319022574308226,0.0
-0.020140173451921158,0.0658844489913522,0.1031145874398455,0.0
-0.020080091962825293,0.06589490960775729,0.10289571915813914,0.0
-0.020051124102011215,0.06588579009601953,0.10307435429982595,0.0
-0.020146342533390822,0.06588498543321913,0.10329000393033075,0.0
-0.020130249277383,0.06593567918964377,0.10320149102228773,0.0
-0.020109328044572834,0.06588471721228567,0.10313041247491986,0.0
-0.020130517498316465,0.06584636161880036,0.10306282079968701,0.0
-0.020115765346975963,0.0659000058054931,0.10310171283503924,0.0
-0.020118179335377136,0.06588605831695299,0.10311700142824667,0.0
-0.02011764289351021,0.06587988923548332,0.10305343306701578,0.0
-0.020137223021653057,0.06581390688585126,0.10298852360111757,0.0
-0.02013454081231842,0.06583402345586103,0.10318083801041103,0.0
-0.02011630178884289,0.06594613980604885,0.10311968363758131,0.0
-0.02013078571924993,0.06590671132882969,0.10309661663730343,0.0
-0.020097526323500432,0.065878548130816,0.1031803015685441,0.0
-0.02006882668361982,0.06586111377014087,0.10313389934705489,0.0
-0.020123811974979873,0.06597698521339718,0.1029764536591117,0.0
-0.020150902289259705,0.06596303772485707,0.10289223228600411,0.0
-0.02014982940552585,0.06590027402642656,0.10322670379003332,0.0
-0.02014178277752194,0.06591341685216628,0.10318888463841494,0.0
-0.020129176393649147,0.06594989489911735,0.10315455235893159,0.0
-0.020132126823917247,0.06594855379445003,0.10312853492838561,0.0
-0.020136954800719593,0.06596196484112321,0.10309903062570461,0.0
-0.02014044167285462,0.06594855379445003,0.1031175378701136,0.0
-0.020138027684453448,0.06594158005017997,0.10306147969501969,0.0
-0.020111473812040544,0.06594265293391383,0.10309634841636997,0.0
-0.020093503009498477,0.06592226814297059,0.10316501297533667,0.0
-0.020124884858713728,0.06589195917748919,0.103147846835595,0.0
-0.020106645835238197,0.06593192409657528,0.10313497223078874,0.0
-0.020159753580064006,0.06592575501510561,0.1031116370095774,0.0
-0.020170750638336017,0.06588659475881992,0.10315106548679656,0.0
-0.020123007312179482,0.06589893292175925,0.1031714502777398,0.0
-0.020113083137641326,0.06577876994356752,0.10308910645116645,0.0
-0.020106645835238197,0.06593755673617802,0.10314972438212924,0.0
-0.020108791602705907,0.06598261785299991,0.10312799848651868,0.0
-0.020130517498316465,0.06589276384028958,0.10311512388171243,0.0
-0.0201243484168468,0.0658852536541526,0.10318164267321142,0.0
-0.020138295905386912,0.06589786003802539,0.10292656456548746,0.0
-0.020100744974701996,0.06594828557351656,0.10282705459917243,0.0
-0.020102086079369315,0.06594453048044807,0.10327015558125444,0.0
-0.020122470870312555,0.06588364432855182,0.10326264539511745,0.0
-0.020116570009776354,0.06592039059643634,0.10320283212695505,0.0
-0.02009216190483116,0.06596142839925628,0.10314677395186114,0.0
-0.020077409753490656,0.06594828557351656,0.10312504805625058,0.0
-0.020100744974701996,0.06586057732827394,0.10315642990546584,0.0
-0.02010020853283507,0.065897055375225,0.10310439504437388,0.0
-0.020102086079369315,0.06589732359615846,0.10316018499853433,0.0
-0.02013963701005423,0.06586781929347746,0.10310922302117623,0.0
-0.020179870150073782,0.06581095645558316,0.10312477983531712,0.0
-0.020154657382328196,0.06578493902503718,0.10314623750999422,0.0
-0.020056756741613953,0.06600219798114276,0.10313094891678679,0.0
-0.020071508892954455,0.0659989793299412,0.10312236584691595,0.0
-0.020087333928028812,0.0659783263180645,0.10316233076600204,0.0
-0.020088406811762667,0.06595660042245394,0.1031870070918807,0.0
-0.020094039451365404,0.06597564410872986,0.1031411413122584,0.0
-0.02008706570709535,0.06587881635174947,0.10293890272842679,0.0
-0.02005809784628127,0.06597591232966332,0.10305289662514885,0.0
-0.02009672166070004,0.0659804720855322,0.10327283779058907,0.0
-0.020101549637502387,0.06601936412088444,0.10318968930121533,0.0
-0.02010396362590356,0.06600032043460852,0.10319103040588265,0.0
-0.02006614447428518,0.06599441957407232,0.10301480925259701,0.0
-0.02012515307964719,0.06599146914380422,0.10282490883170473,0.0
-0.02011925221911099,0.06596303772485707,0.10331199804687477,0.0
-0.020131858602983783,0.06594640802698232,0.10339997451305086,0.0
-0.020086797486161885,0.06599924755087466,0.1031921032896165,0.0
-0.020109596265506298,0.06593353342217606,0.1031322900214541,0.0
-0.020096185218833114,0.06586889217721131,0.10316233076600204,0.0
-0.020080360183758757,0.06598530006233455,0.10320041813855388,0.0
-0.02007848263722451,0.06594265293391383,0.10322911777843449,0.0
-0.020068558462686355,0.06594372581764768,0.1032586220811155,0.0
-0.020086261044294958,0.06597323012032869,0.10323045888310181,0.0
-0.020096185218833114,0.06600595307421125,0.10319237151054997,0.0
-0.020094039451365404,0.06590858887536394,0.10322509446443254,0.0
-0.020099403870034678,0.0659871776088688,0.10326854625565365,0.0
-0.020092698346698086,0.0659753758877964,0.1032460156972427,0.0
-0.020088406811762667,0.06594962667818388,0.10321248808055974,0.0
-0.020095648776966187,0.06591583084056746,0.10307810939289444,0.0
-0.02010825516083898,0.06592495035230522,0.1029107395304131,0.0
-0.02009001613736345,0.06595069956191774,0.10325728097644818,0.0
-0.02005005121827736,0.06597376656219561,0.10323448219710377,0.0
-0.020045759683341942,0.06598449539953416,0.10329134503499807,0.0
-0.02010235430030278,0.06594774913164964,0.10328007975579259,0.0
-0.0201125466957744,0.06599200558567114,0.10323743262737187,0.0
-0.020082505951226466,0.06611404611039712,0.1032350186389707,0.0
-0.020102890742169706,0.06602231455115254,0.10316447653346975,0.0
-0.02013373614951803,0.06596250128299014,0.10311512388171243,0.0
-0.02012568952151412,0.06594748091071617,0.10307140386955785,0.0
-0.020121129765645236,0.06601614546968287,0.10315803923106662,0.0
-0.02009806276536736,0.06599683356247349,0.10327659288365756,0.0
-0.020086797486161885,0.06602177810928561,0.10321409740616053,0.0
-0.020095380556032723,0.06596974324819366,0.10313577689358913,0.0
-0.02009296656763155,0.06599549245780617,0.10318298377787874,0.0
-0.020067753799885964,0.06603089762102338,0.10313470400985528,0.0
-0.020085456381494567,0.06598261785299991,0.10312665738185137,0.0
-0.02009082080016384,0.06595177244565159,0.10318432488254606,0.0
-0.02009216190483116,0.06595901441085511,0.10317037739400595,0.0
-0.020084115276827248,0.06598395895766723,0.10305933392755198,0.0
-0.02004200459027345,0.0660137314812817,0.10291985904215087,0.0
-0.020087602148962276,0.06599468779500578,0.10325754919738164,0.0
-0.020112278474840935,0.06591395329403321,0.10331736246554404,0.0
-0.020095648776966187,0.06596920680632673,0.10323260465056952,0.0
-0.020072849997621774,0.06604457688863002,0.10328463951166147,0.0
-0.020101281416568924,0.06599737000434042,0.10327686110459103,0.0
-0.020123811974979873,0.0660292882954226,0.10333265105875147,0.0
-0.020127835288981828,0.06602472853955371,0.10331441203527594,0.0
-0.020119520440044454,0.06600514841141086,0.10316957273120556,0.0
-0.020099135649101214,0.06604135823742846,0.1032106105340255,0.0
-0.02009725810256697,0.06605771971436974,0.10334713498915851,0.0
-0.020105572951504343,0.06594640802698232,0.10327900687205874,0.0
-0.020113083137641326,0.06593702029431109,0.10327069202312136,0.0
-0.0201184475563106,0.06602687430702142,0.10323770084830533,0.0
-0.02011496068417557,0.06599200558567114,0.10325996318578282,0.0
-0.020073118218555237,0.06607300830757717,0.10329241791873192,0.0
-0.020097794544433896,0.06601775479528366,0.10318942108028187,0.0
-0.020112278474840935,0.06603062940008991,0.1031625989869355,0.0
-0.020125421300580655,0.06594372581764768,0.1031145874398455,0.0
-0.020111742032974007,0.06600595307421125,0.10315589346359891,0.0
-0.020125421300580655,0.06606442523770634,0.10346032422308019,0.0
-0.02015626670792898,0.06603009295822299,0.10340238850145203,0.0
-0.020143123882189258,0.06603492093502533,0.10333855191928767,0.0
-0.020102622521236242,0.0660676438889079,0.10333050529128376,0.0
-0.020102890742169706,0.06605959726090399,0.10333640615181997,0.0
-0.020137223021653057,0.06597269367846176,0.10331709424461058,0.0
-0.020126762405247973,0.06602204633021908,0.1032940272443327,0.0
-0.02009082080016384,0.06600085687647544,0.10322670379003332,0.0
-0.02010396362590356,0.06596840214352634,0.10339139144318002,0.0
-0.02011415602137518,0.06599281024847153,0.10339997451305086,0.0
-0.020102086079369315,0.0660322387256907,0.10331387559340902,0.0
-0.020139905230987694,0.06594828557351656,0.10330824295380628,0.0
-0.02011925221911099,0.06595284532938545,0.10334391633795695,0.0
-0.02010610939337127,0.06599146914380422,0.1033390883611546,0.0
-0.0201213979865787,0.06600541663234433,0.1033634964660998,0.0
-0.020123811974979873,0.06600622129514472,0.10326532760445209,0.0
-0.020119520440044454,0.06598315429486684,0.10310975946304315,0.0
-0.020124884858713728,0.06588257144481796,0.10339756052464968,0.0
-0.02011496068417557,0.065945066922315,0.10338924567571231,0.0
-0.020111473812040544,0.06598449539953416,0.10334820787289237,0.0
-0.020069363125486746,0.06602150988835215,0.10340212028051857,0.0
-0.020100476753768533,0.06602365565581986,0.10324628391817617,0.0
-0.020118983998177527,0.06602150988835215,0.10327900687205874,0.0
-0.020102890742169706,0.0659324605384422,0.10347453993255376,0.0
-0.020080091962825293,0.06596223306205667,0.10342545550172991,0.0
-0.02007553220695641,0.06608346892398226,0.10336671511730136,0.0
-0.020099403870034678,0.06604189467929539,0.1033331875006184,0.0
-0.020103427184036633,0.06600890350447935,0.10332809130288259,0.0
-0.02010181785843585,0.06601560902781595,0.10338656346637767,0.0
-0.020126225963381046,0.06599281024847153,0.1034136537806575,0.0
-0.0201213979865787,0.06598154496926606,0.10338280837330918,0.0
-0.020106377614304734,0.06601051283008014,0.10339112322224656,0.0
-0.02013373614951803,0.0659871776088688,0.10329965988393544,0.0
-0.02011630178884289,0.06598690938793533,0.10338575880357728,0.0
-0.020072313555754846,0.0660019297602093,0.10324118772044036,0.0
-0.02002457022959831,0.06592977832910757,0.10315589346359891,0.0
-0.020143123882189258,0.0659539182131193,0.1033997062921174,0.0
-0.020108791602705907,0.06607434941224449,0.10337368886157142,0.0
-0.020100476753768533,0.065993078469405,0.1033184353492779,0.0
-0.020096453439766578,0.06593755673617802,0.10336430112890019,0.0
-0.02010181785843585,0.06597296189939522,0.10333238283781801,0.0
-0.020079555520958366,0.06605852437717014,0.10338280837330918,0.0
-0.020062121160283226,0.06605369640036779,0.10336108247769862,0.0
-0.02006104827654937,0.06609902573812315,0.10319639482455192,0.0
-0.020119520440044454,0.06596169662018975,0.10332943240754991,0.0
-0.020094575893232332,0.06597725343433064,0.10347373526975337,0.0
-0.020087333928028812,0.0660314340628903,0.1034048024898532,0.0
-0.020082237730293002,0.0660314340628903,0.10336591045450097,0.0
-0.020100744974701996,0.06598395895766723,0.10331628958181019,0.0
-0.020080091962825293,0.06597349834126215,0.10312102474224863,0.0
-0.02001786470626172,0.06604135823742846,0.10316689052187092,0.0
-0.020029129985467194,0.06597323012032869,0.10340936224572209,0.0
-0.02004334569494077,0.06593433808497645,0.10345791023467901,0.0
-0.020050319439210824,0.06589732359615846,0.10342357795519566,0.0
-0.020057024962547416,0.06609661174972198,0.10340319316425242,0.0
-0.02006024361374898,0.06605637860970243,0.10334820787289237,0.0
-0.020021083357463283,0.06600970816727975,0.10347185772321912,0.0
-0.02003315329946915,0.0660351891559588,0.10348848742109387,0.0
-0.02004119992747306,0.06600622129514472,0.10343779366466924,0.0
-0.020048710113610042,0.06586916039814478,0.10338254015237572,0.0
-0.020040931706539596,0.06598556828326801,0.10333372394248533,0.0
-0.020021083357463283,0.06613738133160846,0.10336671511730136,0.0
-0.020051124102011215,0.06600434374861047,0.1034026567223855,0.0
-0.02004415035774116,0.06603089762102338,0.10341794531559292,0.0
-0.020052465206678534,0.06599039626007036,0.10339434187344812,0.0
-0.020057829625347808,0.0659724254575283,0.1033967558618493,0.0
-0.020063998706817472,0.06599066448100382,0.1034056071526536,0.0
-0.020056220299747025,0.06599549245780617,0.10339943807118393,0.0
-0.02004415035774116,0.06594828557351656,0.10331628958181019,0.0
-0.020040395264672668,0.06600407552767701,0.10306040681128584,0.0
-0.020045759683341942,0.06607837272624645,0.10336671511730136,0.0
-0.020068558462686355,0.06598449539953416,0.10361052794581985,0.0
-0.020051928764811607,0.06599790644620734,0.10348205011869074,0.0
-0.020032348636668758,0.06598798227166919,0.10345335047881013,0.0
-0.02003476262506993,0.06598315429486684,0.10341901819932678,0.0
-0.020043882136807696,0.06597859453899796,0.10338736812917806,0.0
-0.020043882136807696,0.06593702029431109,0.10343430679253421,0.0
-0.020030471090134512,0.06596598815512517,0.10340587537358706,0.0
-0.020039322380938814,0.06590697954976316,0.10333238283781801,0.0
-0.020052733427611998,0.06598583650420148,0.10341419022252443,0.0
-0.020042541032140378,0.06600863528354589,0.1034026567223855,0.0
-0.02004415035774116,0.06602606964422103,0.1033390883611546,0.0
-0.019996943473451552,0.06592602323603908,0.10338790457104499,0.0
-0.020021351578396747,0.06595123600378466,0.10329241791873192,0.0
-0.020063998706817472,0.066022582772086,0.10351155442137175,0.0
-0.020094039451365404,0.06592253636390405,0.10347293060695298,0.0
-0.020075263986022947,0.06605986548183745,0.10338656346637767,0.0
-0.02007124067202099,0.06605101419103315,0.10344262164147158,0.0
-0.020063462264950545,0.0659804720855322,0.1034380618856027,0.0
-0.020084115276827248,0.065926559677906,0.10340963046665555,0.0
-0.020078750858157975,0.0659960288996731,0.10337583462903913,0.0
-0.02005729318348088,0.066089101563585,0.1034056071526536,0.0
-0.02002886176453373,0.06608427358678265,0.10342277329239527,0.0
-0.020038517718138422,0.06605986548183745,0.10337342064063795,0.0
-0.020057829625347808,0.06600327086487662,0.10335062186129354,0.0
-0.020051928764811607,0.06601346326034824,0.10335223118689432,0.0
-0.020051124102011215,0.06601131749288053,0.10335035364036008,0.0
-0.020050587660144288,0.06600541663234433,0.10325379410431315,0.0
-0.020070972451087528,0.06601158571381399,0.10357458634073571,0.0
-0.02009162546296423,0.06599281024847153,0.10353140277044806,0.0
-0.02008196950935954,0.06599334669033846,0.10340802114105477,0.0
-0.020065876253351718,0.06604779553983159,0.10345522802534438,0.0
-0.02004495502054155,0.06599522423687271,0.10347400349068683,0.0
-0.020044686799608087,0.06599844288807427,0.10339487831531505,0.0
-0.020049782997343897,0.06592709611977293,0.10351691884004102,0.0
-0.020017596485328255,0.06610519481959282,0.10352630657271225,0.0
-0.020007135868923172,0.06607327652851064,0.1035311345495146,0.0
-0.020023229124930993,0.06603706670249304,0.10350484889803516,0.0
-0.02002457022959831,0.06602285099301947,0.10348205011869074,0.0
-0.020025643113332166,0.06605181885383354,0.10346971195575141,0.0
-0.020019205810929037,0.0660735447494441,0.10348285478149113,0.0
-0.020046027904275406,0.0660558421678355,0.1034498636066751,0.0
-0.020023229124930993,0.06597859453899796,0.10351021331670443,0.0
-0.02003315329946915,0.06603304338849109,0.1034565691300117,0.0
-0.020040395264672668,0.06605235529570047,0.10346568864174946,0.0
-0.020033689741336076,0.06603277516755762,0.10353784007285119,0.0
-0.020049514776410433,0.06604752731889812,0.10349251073509583,0.0
-0.020041736369339987,0.06601212215568092,0.10349331539789622,0.0
-0.020057829625347808,0.06600139331834237,0.10351477307257331,0.0
-0.02003261685760222,0.06594935845725042,0.10351879638657527,0.0
-0.020023229124930993,0.06595150422471813,0.10346407931614868,0.0
-0.02002886176453373,0.06612075163373371,0.10327793398832488,0.0
-0.02000981807825781,0.06609044266825231,0.10335196296596086,0.0
-0.01998648285704647,0.06605020952823276,0.10372800871467694,0.0
-0.01998380064771183,0.06604296756302924,0.10358102364313884,0.0
-0.019987019298913396,0.0660941977613208,0.10365397973704096,0.0
-0.020003648996788144,0.0660528917375674,0.10369233533052627,0.0
-0.020018132927195183,0.06603706670249304,0.103572440573268,0.0
-0.020008208752657027,0.06603492093502533,0.10345522802534438,0.0
-0.020005258322388926,0.06608936978451846,0.10349841159563203,0.0
-0.020011159182925127,0.06609446598225427,0.10353354853791577,0.0
-0.019996407031584625,0.06607998205184723,0.10358987493394314,0.0
-0.020015450717860546,0.0660469908770312,0.10355393332885901,0.0
-0.02002886176453373,0.06602419209768678,0.10352791589831303,0.0
-0.020023229124930993,0.0660971481915889,0.10355017823579052,0.0
-0.02002376556679792,0.06608776045891768,0.10353971761938544,0.0
-0.020042541032140378,0.06613684488974153,0.10352416080524454,0.0
-0.02003395796226954,0.06607434941224449,0.10351477307257331,0.0
-0.01999533414785077,0.06614676906427969,0.10351477307257331,0.0
-0.01999023795011496,0.06612960292453801,0.10329134503499807,0.0
-0.020007135868923172,0.06605691505156935,0.10350940865390404,0.0
-0.020034494404136467,0.06603197050475723,0.1037467841800194,0.0
-0.020032885078535685,0.06603357983035801,0.10356895370113298,0.0
-0.01999747991531848,0.06605423284223472,0.1035812918640723,0.0
-0.02001142740385859,0.0659273643407064,0.1035370354100508,0.0
-0.01999613881065116,0.06605771971436974,0.10366470857437951,0.0
-0.020002307892120826,0.06606040192370438,0.10361321015515448,0.0
-0.02001437783412669,0.06605906081903706,0.10350726288643633,0.0
-0.020030471090134512,0.06609473420318773,0.10352201503777683,0.0
-0.019998016357185407,0.06609983040092354,0.10364271445783549,0.0
-0.01998085021744373,0.06608481002864958,0.10364325089970242,0.0
-0.02000043034558658,0.06602150988835215,0.10358558339900772,0.0
-0.020041468148406523,0.06594828557351656,0.10354079050311929,0.0
-0.02000043034558658,0.06613684488974153,0.10352121037497644,0.0
-0.019989701508248033,0.06607756806344606,0.10348580521175924,0.0
-0.020006867647989708,0.06600943994634628,0.10327739754645796,0.0
-0.020009549857324345,0.06603626203969265,0.10349063318856158,0.0
-0.020000162124653116,0.06610251261025818,0.10375483080802331,0.0
-0.019958051438099318,0.06609232021478656,0.10364995642303901,0.0
-0.019998552799052334,0.06608802867985114,0.1035399858403189,0.0
-0.019996675252518088,0.0660499413072993,0.10361723346915644,0.0
-0.019987823961713787,0.06601936412088444,0.10360382242248325,0.0
-0.02002376556679792,0.06599146914380422,0.10357163591046761,0.0
-0.020010354520124736,0.06606388879583941,0.10357565922446957,0.0
-0.019970926042905575,0.06606120658650477,0.10354454559618778,0.0
-0.019974681135974066,0.06605718327250282,0.1035303298867142,0.0
-0.019992115496649206,0.06609044266825231,0.10355607909632672,0.0
-0.01999962568278619,0.06603304338849109,0.10358585161994119,0.0
-0.01998943328731457,0.06603384805129148,0.10356037063126214,0.0
-0.01997494935690753,0.06617144539015835,0.10351423663070639,0.0
-0.019986751077979932,0.06608051849371416,0.1035635892824637,0.0
-0.019989165066381105,0.06609017444731885,0.10357190413140108,0.0
-0.01995751499623239,0.06611780120346561,0.10351182264230521,0.0
-0.019992651938516133,0.06605637860970243,0.1035281841192465,0.0
-0.019988360403580714,0.06606898499357522,0.10353274387511538,0.0
-0.019938203089023006,0.06607113076104293,0.10340802114105477,0.0
-0.01993417977502105,0.0660920519938531,0.10336376468703326,0.0
-0.019992920159449597,0.0660048801904774,0.10360060377128169,0.0
-0.019993724822249988,0.06608481002864958,0.10367329164425035,0.0
-0.019951345914762726,0.0661754687041603,0.10363788648103314,0.0
-0.019962879414901664,0.06616259409935404,0.10367302342331688,0.0
-0.0200106227410582,0.06610143972652432,0.10358156008500577,0.0
-0.020013036729459373,0.06613013936640494,0.10359792156194705,0.0
-0.02003020286920105,0.06610841347079438,0.10360516352715057,0.0
-0.020028593543600266,0.06607703162157913,0.1035702948058003,0.0
-0.020007940531723563,0.06606281591210555,0.10351772350284141,0.0
-0.019985409973312614,0.0661695678436241,0.10349412006069661,0.0
-0.019956173891565072,0.0661872704252327,0.10362957163209577,0.0
-0.019959124321833173,0.0661489148317474,0.10359604401541281,0.0
-0.01998433708957876,0.06609687997065544,0.10355688375912711,0.0
-0.019952955240363508,0.06611243678479634,0.1036263529808942,0.0
-0.019917013635279375,0.06614408685494505,0.10360248131781594,0.0
-0.01998219132211105,0.06607434941224449,0.10361052794581985,0.0
-0.01997789978717563,0.06614623262241276,0.10362796230649499,0.0
-0.01996904849637133,0.06617117716922488,0.10344584029267315,0.0
-0.01994276284489189,0.06614435507587851,0.10341097157132287,0.0
-0.01992988824008563,0.06612879826173762,0.10371272012146951,0.0
-0.019932302228486805,0.06611511899413097,0.10364405556250281,0.0
-0.019948127263561162,0.0660764951797122,0.10358236474780616,0.0
-0.01999318838038306,0.0659871776088688,0.10359470291074549,0.0
-0.01994732260076077,0.06616742207615639,0.1035096768748375,0.0
-0.019931765786619877,0.0661754687041603,0.10356493038713102,0.0
-0.019944103949559207,0.06608963800545192,0.10363118095769655,0.0
-0.019936057321555296,0.0661312122501388,0.10364298267876895,0.0
-0.019979509112776413,0.0660764951797122,0.10360435886435018,0.0
-0.01999828457811887,0.06607569051691181,0.10355446977072594,0.0
-0.019992920159449597,0.066070594319176,0.1035104815376379,0.0
-0.01998219132211105,0.06603706670249304,0.10355688375912711,0.0
-0.019986214636113005,0.06604377222582963,0.10360033555034823,0.0
-0.01997494935690753,0.06611350966853019,0.10361025972488638,0.0
-0.01994276284489189,0.06609607530785505,0.10355151934045784,0.0
-0.01994142174022457,0.06614033176187656,0.1036145512598218,0.0
-0.01997494935690753,0.06610653592426013,0.1036293034111623,0.0
-0.01994732260076077,0.06614676906427969,0.10361401481795487,0.0
-0.019945445054226525,0.066137113110675,0.10359658045727974,0.0
-0.019971730705705966,0.06610143972652432,0.10358316941060655,0.0
-0.019976826903441776,0.06610224438932472,0.10362474365529342,0.0
-0.019926669588884068,0.06618646576243231,0.10359711689914666,0.0
-0.01993552087968837,0.06612209273840103,0.10358316941060655,0.0
-0.01994356750769228,0.06613148047107226,0.10365451617890789,0.0
-0.019932838670353732,0.06615803434348516,0.10363493605076504,0.0
-0.01992532848421675,0.06617385937855952,0.10362876696929538,0.0
-0.019959392542766637,0.06609687997065544,0.1035702948058003,0.0
-0.01993337511222066,0.06618297889029728,0.10359658045727974,0.0
-0.019947054379827307,0.06614355041307812,0.10357995075940499,0.0
-0.019987555740780323,0.06603867602809382,0.10338549058264382,0.0
-0.01993042468195256,0.06605852437717014,0.10341284911785711,0.0
-0.01997280358943982,0.06615508391321706,0.10363788648103314,0.0
-0.02000552654332239,0.0661363084478746,0.1036537115161075,0.0
-0.019945981496093453,0.06617761447162801,0.10366765900464761,0.0
-0.01993927597275686,0.0661902208555008,0.10359550757354588,0.0
-0.019963147635835128,0.06611324144759673,0.10349170607229544,0.0
-0.019970926042905575,0.06610599948239321,0.10357136768953415,0.0
-0.019942494623958425,0.06610063506372393,0.10366900010931493,0.0
-0.01993713020528915,0.0660979528543893,0.10359497113167895,0.0
-0.019919964065547476,0.06612048341280025,0.10348124545589035,0.0
-0.019902529704872333,0.06611082745919555,0.1033420387914227,0.0
-0.019926669588884068,0.06606925321450868,0.10359523935261242,0.0
-0.01994651793796038,0.06606657100517405,0.10381303475058493,0.0
-0.01991111277474317,0.06614194108747734,0.1037261311681427,0.0
-0.019922646274882112,0.06609258843572002,0.10371164723773565,0.0
-0.019935789100621833,0.06611941052906639,0.10371272012146951,0.0
-0.019930692902886023,0.06614328219214466,0.10369984551666325,0.0
-0.01992988824008563,0.06613818599440885,0.10356841725926605,0.0
-0.019960197205567028,0.06608051849371416,0.10356788081739912,0.0
-0.019961538310234346,0.06610465837772589,0.1036212567831584,0.0
-0.019934447995954514,0.06604860020263198,0.10355017823579052,0.0
-0.01993927597275686,0.06595284532938545,0.10350216668870052,0.0
-0.01994571327515999,0.06616688563428946,0.10353649896818387,0.0
-0.01992532848421675,0.0662175793907141,0.10358236474780616,0.0
-0.019918354739946693,0.06617520048322684,0.1034831230024246,0.0
-0.019939812414623788,0.06613899065720924,0.10329912344206851,0.0
-0.019900652158338087,0.06611082745919555,0.10379452750617593,0.0
-0.01992184161208172,0.06612128807560064,0.10375536724989023,0.0
-0.019924523821416358,0.0661459644014793,0.10351209086323868,0.0
-0.01989421485593496,0.06613979532000963,0.103638959364767,0.0
-0.019909771670075852,0.06611887408719946,0.1037046734934656,0.0
-0.019898506390870378,0.06612665249426991,0.10364325089970242,0.0
-0.019930156461019095,0.06607810450531298,0.10362259788782571,0.0
-0.019925060263283285,0.06613604022694114,0.1035812918640723,0.0
-0.019928815356351777,0.06613764955254192,0.10360033555034823,0.0
-0.01992237805394865,0.06615320636668282,0.1036411051322347,0.0
-0.019895555960602277,0.06614837838988047,0.1036360089344989,0.0
-0.019870611413790155,0.06613094402920533,0.10360596818995096,0.0
-0.019901993263005405,0.06602606964422103,0.10353542608445002,0.0
-0.019920500507414403,0.06611994697093332,0.10354213160778661,0.0
-0.019904943693273506,0.06612826181987069,0.10353918117751851,0.0
-0.01991674541434591,0.06605557394690204,0.10343296568786689,0.0
-0.01994651793796038,0.06599817466714081,0.10327069202312136,0.0
-0.0199626111939682,0.06600353908581008,0.10363144917863001,0.0
-0.01991594075154552,0.06620819165804287,0.10372398540067498,0.0
-0.01993847130995647,0.0660979528543893,0.10356412572433063,0.0
-0.01993042468195256,0.06611967874999986,0.10361106438768677,0.0
-0.01993122934475295,0.06611297322666326,0.10366497679531297,0.0
-0.01995161413569619,0.06609339309852041,0.10355929774752828,0.0
-0.019949736589161944,0.06608507824958304,0.10358558339900772,0.0
-0.01994061707742418,0.06608936978451846,0.10361428303888834,0.0
-0.019943299286758816,0.06611055923826209,0.1035753910035361,0.0
-0.019933643333154123,0.06615642501788438,0.10360435886435018,0.0
-0.019922646274882112,0.06613979532000963,0.10357512278260264,0.0
-0.019927742472617922,0.0661215562965341,0.10360596818995096,0.0
-0.019925864926083676,0.0660772998425126,0.1035850469571408,0.0
-0.019900383937404623,0.06613496734320728,0.10353757185191773,0.0
-0.019895287739668813,0.06612611605240298,0.10361025972488638,0.0
-0.01990092037927155,0.0660979528543893,0.10353462142164963,0.0
-0.019901993263005405,0.06608963800545192,0.10336027781489823,0.0
-0.019935252658754905,0.06605718327250282,0.10371379300520336,0.0
-0.01993203400755334,0.06608400536584919,0.10376421854069454,0.0
-0.01991379498407781,0.06608963800545192,0.10365424795797443,0.0
-0.019933643333154123,0.06606496167957326,0.10363359494609772,0.0
-0.019956978554365463,0.06596786570165941,0.10358558339900772,0.0
-0.01994866370542809,0.06608588291238343,0.10360543174808404,0.0
-0.01992398737954943,0.06613872243627578,0.10365129752770633,0.0
-0.01992318271674904,0.06613684488974153,0.1036802653885204,0.0
-0.019982727763977977,0.06610948635452824,0.10360650463181789,0.0
-0.01998728751984686,0.06602097344648522,0.10360596818995096,0.0
-0.01995456456596429,0.06610734058706053,0.10367490096985113,0.0
-0.01991299032127742,0.0661430139712112,0.1036411051322347,0.0
-0.019890996204733394,0.06611216856386287,0.10366524501624644,0.0
-0.019919695844614012,0.06607434941224449,0.1034225050714618,0.0
-0.01992023228648094,0.06613979532000963,0.10340024273398432,0.0
-0.01991728185621284,0.06611914230813293,0.10387418912341466,0.0
-0.019931765786619877,0.06604940486543237,0.103764486761628,0.0
-0.019912185658477025,0.06613148047107226,0.10374034687761627,0.0
-0.019909771670075852,0.06608507824958304,0.10378138468043621,0.0
-0.019919964065547476,0.06609473420318773,0.1037888948665732,0.0
-0.019958587879966246,0.06601265859754785,0.1036899213421251,0.0
-0.019939812414623788,0.06601346326034824,0.10373525067988046,0.0
-0.019914331425944738,0.06614945127361432,0.10375617191269063,0.0
-0.01992988824008563,0.06611646009879829,0.10372586294720923,0.0
-0.01993042468195256,0.06611726476159868,0.10364807887650476,0.0
-0.019941958182091497,0.06599656534154003,0.10365612550450867,0.0
-0.019928815356351777,0.06609473420318773,0.10368348403972197,0.0
-0.019920768728347867,0.0661725182738922,0.10369126244679241,0.0
-0.019915672530612057,0.06613550378507421,0.10368214293505465,0.0
-0.0199508094728958,0.0660941977613208,0.10347668570002147,0.0
-0.01992023228648094,0.06615883900628555,0.10360945506208599,0.0
-0.019954296345030827,0.06613818599440885,0.10419578602263761,0.0
-0.01998085021744373,0.06610948635452824,0.10385997341394108,0.0
-0.019997748136251943,0.06605959726090399,0.10352925700298035,0.0
-0.019955637449698145,0.06608481002864958,0.10365612550450867,0.0
-0.019914063205011275,0.06613228513387265,0.10385085390220332,0.0
-0.019909235228208925,0.06615508391321706,0.10365317507424057,0.0
-0.01993713020528915,0.06615883900628555,0.10356707615459873,0.0
-0.019976826903441776,0.06609687997065544,0.10367919250478655,0.0
-0.019986214636113005,0.0661038537149255,0.10367758317918577,0.0
-0.019973071810373284,0.06612236095933449,0.10349760693283164,0.0
-0.019975217577840994,0.06607434941224449,0.10374410197068476,0.0
-0.019967975612637474,0.06611994697093332,0.10380230591324638,0.0
-0.019962074752101273,0.06600702595794511,0.10366095348131102,0.0
-0.01997629046157485,0.06606120658650477,0.10366980477211532,0.0
-0.019967170949837083,0.06620229079750667,0.1036832158187885,0.0
-0.01997709512437524,0.06606710744704097,0.10368455692345582,0.0
-0.019943031065825352,0.06609285665665349,0.10370091840039711,0.0
-0.019934447995954514,0.06604886842356544,0.10370655103999984,0.0
-0.019933911554087587,0.06608722401705075,0.10369233533052627,0.0
-0.019948395484494626,0.06606442523770634,0.10367892428385309,0.0
-0.019946249717026916,0.06609285665665349,0.10371111079586873,0.0
-0.01992398737954943,0.06607837272624645,0.10368831201652431,0.0
-0.01991594075154552,0.06604913664449891,0.10370440527253214,0.0
-0.019918354739946693,0.06605450106316818,0.10373390957521314,0.0
-0.019939544193690324,0.06608507824958304,0.10346568864174946,0.0
-0.019944103949559207,0.06608454180771611,0.10343698900186885,0.0
-0.019911649216610098,0.06609151555198617,0.10385112212313678,0.0
-0.019958587879966246,0.06601882767901751,0.1037017230631975,0.0
-0.019950541251962335,0.0660196323418179,0.10380471990164755,0.0
-0.019978168008109094,0.06595633220152047,0.1036175016900899,0.0
-0.019963684077702055,0.06610599948239321,0.10369233533052627,0.0
-0.019948931926361553,0.06612879826173762,0.10385997341394108,0.0
-0.0199478590426277,0.06606952143544215,0.10387499378621505,0.0
-0.019956710333432,0.06602741074888835,0.10373015448214465,0.0
-0.01993417977502105,0.06606844855170829,0.1036056999690175,0.0
-0.019938739530889933,0.0660204370046183,0.10364432378343627,0.0
-0.019932302228486805,0.0660166819115498,0.10378460333163778,0.0
-0.019953491682230436,0.06599200558567114,0.10377897069203504,0.0
-0.019956978554365463,0.06599120092287075,0.10376368209882761,0.0
-0.01995590567063161,0.06594426225951461,0.10375617191269063,0.0
-0.019899847495537696,0.06606844855170829,0.10377816602923465,0.0
-0.01990816234447507,0.06597349834126215,0.10368160649318772,0.0
-0.019934716216887978,0.06600997638821321,0.10354776424738935,0.0
-0.019923450937682503,0.06611511899413097,0.10384334371606634,0.0
-0.01994356750769228,0.0660166819115498,0.10389618323995868,0.0
-0.019923719158615967,0.0659391660617788,0.10386748360007807,0.0
-0.019938203089023006,0.06594694446884924,0.1037918452968413,0.0
-0.01989716528620306,0.06611780120346561,0.10381705806458688,0.0
-0.019882413134862557,0.06611941052906639,0.10382242248325617,0.0
-0.019889655100066076,0.06608427358678265,0.10375161215682174,0.0
-0.0198636376695201,0.06608400536584919,0.10377199694776498,0.0
-0.019881608472062166,0.06606067014463785,0.10373256847054582,0.0
-0.01991111277474317,0.06606657100517405,0.1037046734934656,0.0
-0.019907894123541606,0.06605959726090399,0.10375456258708984,0.0
-0.019894483076868422,0.06601802301621712,0.10365934415571024,0.0
-0.019898238169936914,0.06606093836557131,0.10363681359729929,0.0
-0.01991299032127742,0.06609285665665349,0.10357404989886879,0.0
-0.019924792042349822,0.06609929395905662,0.10366685434184722,0.0
-0.019900652158338087,0.06606120658650477,0.10396431135705846,0.0
-0.01995751499623239,0.06599790644620734,0.10381383941338532,0.0
-0.019954296345030827,0.06605691505156935,0.10374919816842057,0.0
-0.01993847130995647,0.06605396462130125,0.10372747227281001,0.0
-0.019920768728347867,0.06603974891182768,0.10387579844901544,0.0
-0.019934716216887978,0.06596732925979248,0.103793991064309,0.0
-0.019929620019152168,0.06601614546968287,0.10370681926093331,0.0
-0.019914867867811666,0.06613684488974153,0.10368831201652431,0.0
-0.01992747425168446,0.06604430866769656,0.10352362436337761,0.0
-0.01993713020528915,0.06598449539953416,0.10359658045727974,0.0
-0.019930156461019095,0.06598771405073572,0.10385809586740684,0.0
-0.019919427623680548,0.06599468779500578,0.10373256847054582,0.0
-0.01993203400755334,0.0660078306207455,0.10380820677378258,0.0
-0.019944103949559207,0.06604913664449891,0.10377280161056537,0.0
-0.01995536922876468,0.06597591232966332,0.10366014881851063,0.0
-0.019914867867811666,0.06598771405073572,0.10378487155257124,0.0
-0.019899847495537696,0.06615079237828164,0.1037998919248452,0.0
-0.019919964065547476,0.06606040192370438,0.10372559472627577,0.0
-0.019917013635279375,0.06601802301621712,0.10367892428385309,0.0
-0.019896897065269595,0.06604350400489617,0.103716475214538,0.0
-0.019942494623958425,0.0660381395862269,0.10369072600492549,0.0
-0.019906553018874288,0.06607032609824254,0.10367919250478655,0.0
-0.019934716216887978,0.06599817466714081,0.10359523935261242,0.0
-0.019931765786619877,0.06592629145697254,0.10366926833024839,0.0
-0.01989796994900345,0.06608856512171807,0.1037253265053423,0.0
-0.019856932146183507,0.06608668757518382,0.10371486588893722,0.0
-0.019874902948725574,0.0660528917375674,0.10376475498256146,0.0
-0.019906553018874288,0.06603089762102338,0.10364620132997052,0.0
-0.01990226148393887,0.06603706670249304,0.10349331539789622,0.0
-0.01988992332099954,0.06605691505156935,0.10378835842470627,0.0
-0.01988402246046334,0.06603760314435997,0.10374463841255169,0.0
-0.019866051657921272,0.06597725343433064,0.10368241115598811,0.0
-0.01985559104151619,0.06597430300406254,0.10383663819272974,0.0
-0.01988911865819915,0.06601587724874941,0.10383824751833053,0.0
-0.01987678049525982,0.0661422093084108,0.1037918452968413,0.0
-0.01988482712326373,0.06604752731889812,0.1037261311681427,0.0
-0.019872757181257864,0.06608883334265153,0.10378996775030705,0.0
-0.01988268135579602,0.06601748657435019,0.10379747793644403,0.0
-0.019877048716193283,0.06600943994634628,0.10381303475058493,0.0
-0.019880267367394847,0.06602419209768678,0.10375429436615638,0.0
-0.01985210416938116,0.06606844855170829,0.103542936270587,0.0
-0.019888045774465294,0.06598771405073572,0.10375885412202526,0.0
-0.019902529704872333,0.06599817466714081,0.10394124435678058,0.0
-0.019894483076868422,0.06606978965637561,0.10384307549513287,0.0
-0.019885095344197194,0.06607274008664371,0.10380445168071409,0.0
-0.01987678049525982,0.0660381395862269,0.10380686566911526,0.0
-0.019853981715915407,0.06607837272624645,0.10385407255340488,0.0
-0.019900383937404623,0.06598556828326801,0.10372291251694113,0.0
-0.019888313995398758,0.06595552753872008,0.10384307549513287,0.0
-0.0198244774132344,0.06593219231750874,0.10392568754263969,0.0
-0.019879462704594456,0.06605691505156935,0.1038798217630174,0.0
-0.01989367841406803,0.06605637860970243,0.10382671401819159,0.0
-0.01988777755353183,0.06600327086487662,0.10381330297151839,0.0
-0.01988911865819915,0.06601346326034824,0.10383824751833053,0.0
-0.019890191541933003,0.06600353908581008,0.10375483080802331,0.0
-0.01988777755353183,0.06603572559782572,0.10382537291352427,0.0
-0.019927206030750995,0.06601802301621712,0.10392246889143812,0.0
-0.01993632554248876,0.06600997638821321,0.10388840483288823,0.0
-0.019921573391148258,0.06600461196954394,0.10382108137858885,0.0
-0.019899579274604232,0.06605181885383354,0.10363493605076504,0.0
-0.019885900006997585,0.06601426792314863,0.10386050985580801,0.0
-0.01990011571647116,0.06605020952823276,0.1039720897641289,0.0
-0.019914599646878202,0.0659863729460684,0.10385085390220332,0.0
-0.019909771670075852,0.0660343844931584,0.10385004923940293,0.0
-0.019899847495537696,0.06600461196954394,0.10383261487872779,0.0
-0.019914063205011275,0.06605825615623667,0.10391147183316611,0.0
-0.019938203089023006,0.0660292882954226,0.10386024163487455,0.0
-0.01992398737954943,0.0659332652012426,0.1038613145186084,0.0
-0.019931765786619877,0.06606576634237366,0.10397343086879622,0.0
-0.01991191743754356,0.06610868169172784,0.1039817457177336,0.0
-0.019905748356073897,0.0660764951797122,0.10387257979781388,0.0
-0.019916477193412448,0.06603009295822299,0.10384146616953209,0.0
-0.019944103949559207,0.06601641369061634,0.10382376358792349,0.0
-0.01995027303102887,0.06605450106316818,0.1038739209024812,0.0
-0.01992318271674904,0.0660853464705165,0.10395197319411913,0.0
-0.019941958182091497,0.06602821541168874,0.10386185096047533,0.0
-0.01990896700727546,0.06603894424902729,0.10369072600492549,0.0
-0.019950004810095408,0.06597671699246371,0.10390074299582756,0.0
-0.019979777333709876,0.06603009295822299,0.10382698223912505,0.0
-0.019910039891009316,0.06611190034292941,0.10372371717974152,0.0
-0.019914331425944738,0.06606683922610751,0.10381920383205459,0.0
-0.019898238169936914,0.0660137314812817,0.10397316264786276,0.0
-0.019899042832737305,0.06595016312005081,0.10391093539129918,0.0
-0.01991111277474317,0.06606147480743824,0.10386989758847924,0.0
-0.019944103949559207,0.06606871677264176,0.10384173439046555,0.0
-0.019917013635279375,0.06607113076104293,0.103897524344626,0.0
-0.019936861984355687,0.06599978399274159,0.10385890053020723,0.0
-0.019948931926361553,0.0660440404467631,0.10380471990164755,0.0
-0.01991728185621284,0.06616634919242254,0.10384548948353405,0.0
-0.019954832786897754,0.0660469908770312,0.10383583352992935,0.0
-0.019907625902608143,0.06606791210984136,0.10385702298367298,0.0
-0.019924523821416358,0.06606093836557131,0.10381437585525224,0.0
-0.01994866370542809,0.06607274008664371,0.10362018389942454,0.0
-0.01995456456596429,0.06606254769117209,0.10374329730788437,0.0
-0.019951882356629654,0.06604430866769656,0.10389484213529136,0.0
-0.019962879414901664,0.06606147480743824,0.10370708748186677,0.0
-0.01994008063555725,0.0660920519938531,0.10377092406403113,0.0
-0.019950004810095408,0.06602150988835215,0.10371781631920532,0.0
-0.019952150577563117,0.0660166819115498,0.10373471423801353,0.0
-0.019947590821694235,0.06601426792314863,0.10371915742387264,0.0
-0.019910039891009316,0.06605047774916623,0.10373015448214465,0.0
-0.019938739530889933,0.06606630278424058,0.10359658045727974,0.0
-0.019947054379827307,0.06598449539953416,0.10366980477211532,0.0
-0.01992908357728524,0.06586862395627785,0.10382778690192544,0.0
-0.019917013635279375,0.06601265859754785,0.10373230024961236,0.0
-0.019877316937126747,0.06609741641252237,0.103812498308718,0.0
-0.01988563178606412,0.06605369640036779,0.10381705806458688,0.0
-0.019872220739390937,0.06607113076104293,0.1037320320286789,0.0
-0.019898506390870378,0.06604216290022885,0.10372318073787459,0.0
-0.019890996204733394,0.06604055357462807,0.10391576336810153,0.0
-0.01990092037927155,0.06601882767901751,0.10383154199499393,0.0
-0.019921305170214794,0.06601882767901751,0.10378674909910549,0.0
-0.019895555960602277,0.0660381395862269,0.10378433511070431,0.0
-0.01988107203019524,0.06599146914380422,0.10387284801874734,0.0
-0.019906553018874288,0.06597939920179835,0.10382403180885695,0.0
-0.019913526763144347,0.06600407552767701,0.10379425928524247,0.0
-0.01988911865819915,0.06597403478312908,0.10377494737803308,0.0
-0.019860419018318535,0.06596598815512517,0.10380391523884716,0.0
-0.019884558902330266,0.06597644877153025,0.1037489299474871,0.0
-0.019888313995398758,0.06589142273562226,0.10375134393588828,0.0
-0.019885900006997585,0.06590563844509584,0.10379157707590783,0.0
-0.01987329362312479,0.06613174869200572,0.10382134959952231,0.0
-0.019846739750711887,0.06602821541168874,0.10383502886712896,0.0
-0.019869002088189373,0.06599549245780617,0.10373283669147929,0.0
-0.019858273250850825,0.06605342817943433,0.10371406122613683,0.0
-0.019855322820582725,0.06601695013248327,0.10385487721620527,0.0
-0.019873561844058255,0.06597403478312908,0.10382456825072388,0.0
-0.019892337309400713,0.06593702029431109,0.10375992700575912,0.0
-0.019840838890175686,0.06596384238765746,0.10365263863237364,0.0
-0.019850226622846915,0.06601292681848131,0.10372881337747733,0.0
-0.019899042832737305,0.06599254202753807,0.10396592068265924,0.0
-0.019882949576729484,0.06604967308636583,0.10376958295936381,0.0
-0.019891532646600322,0.06599468779500578,0.10366309924877873,0.0
-0.01985934613458468,0.06600863528354589,0.10389135526315633,0.0
-0.019862833006719708,0.06602097344648522,0.10375429436615638,0.0
-0.019831987599371385,0.06605181885383354,0.10378782198283934,0.0
-0.019864174111387026,0.06601158571381399,0.10376877829656342,0.0
-0.019846471529778423,0.0660461862142308,0.1038006965876456,0.0
-0.01983735201804066,0.06601802301621712,0.10379720971551057,0.0
-0.019832792262171776,0.06601909589995097,0.1037526850405556,0.0
-0.019847276192578815,0.06592682789883947,0.10375697657549102,0.0
-0.019848617297246133,0.06590966175909779,0.10381303475058493,0.0
-0.01985344527404848,0.06595043134098427,0.10375348970335599,0.0
-0.019818308331764737,0.06602499676048718,0.10376904651749688,0.0
-0.019831451157504457,0.06607756806344606,0.10358746094554197,0.0
-0.019855859262449652,0.06604001713276114,0.10343967121120348,0.0
-0.019849421960046524,0.0659665245969921,0.10395572828718762,0.0
-0.019858273250850825,0.06595606398058701,0.10391737269370231,0.0
-0.019855859262449652,0.06595043134098427,0.10374410197068476,0.0
-0.01983091471563753,0.06596920680632673,0.1037408833194832,0.0
-0.01987168429752401,0.06600273442300969,0.10368589802812314,0.0
-0.019855859262449652,0.06603304338849109,0.10374141976135012,0.0
-0.019835742692439876,0.06598074030646567,0.10377655670363387,0.0
-0.019852908832181552,0.06595525931778662,0.10376958295936381,0.0
-0.019851567727514233,0.06594640802698232,0.10375483080802331,0.0
-0.019856127483383116,0.06596330594579053,0.10373471423801353,0.0
-0.01984700797164535,0.06593353342217606,0.10373069092401158,0.0
-0.019840570669242222,0.06585896800267316,0.10374544307535208,0.0
-0.01982581851790172,0.06598395895766723,0.10374758884281979,0.0
-0.019815894343363564,0.06602016878368483,0.10378701732003895,0.0
-0.019839229564574904,0.0659354109687103,0.10375402614522292,0.0
-0.019855322820582725,0.0658823032238845,0.10371164723773565,0.0
-0.01984486220417764,0.06597698521339718,0.10373337313334621,0.0
-0.019838693122707977,0.06596625637605863,0.10369045778399202,0.0
-0.01982501385510133,0.06594318937578075,0.10357002658486683,0.0
-0.01984486220417764,0.0658726472702798,0.10384441659980019,0.0
-0.019846471529778423,0.06606496167957326,0.1038760666699489,0.0
-0.019855859262449652,0.0660255332023541,0.1037489299474871,0.0
-0.019873561844058255,0.06596679281792556,0.1037371282264147,0.0
-0.019873561844058255,0.06597913098086489,0.10376207277322683,0.0
-0.019869806750989764,0.0659724254575283,0.10365344329517404,0.0
-0.019855859262449652,0.06597054791099405,0.10372693583094308,0.0
-0.019842179994843005,0.06595284532938545,0.103831005553127,0.0
-0.01987892626272753,0.0659147579568336,0.10374463841255169,0.0
-0.019874098285925183,0.06588605831695299,0.10364298267876895,0.0
-0.019866051657921272,0.06583482811866143,0.10371245190053605,0.0
-0.01987329362312479,0.06593004655004103,0.10367382808611728,0.0
-0.019854786378715798,0.0658852536541526,0.10353596252631694,0.0
-0.019851567727514233,0.06597913098086489,0.10382778690192544,0.0
-0.019879999146461384,0.06593111943377489,0.10386614249541075,0.0
-0.01984915373911306,0.06592629145697254,0.10386346028607611,0.0
-0.01987758515806021,0.06584850738626807,0.10366604967904683,0.0
-0.019860687239252,0.06593487452684338,0.10367195053958303,0.0
-0.01985424993684887,0.06590992998003126,0.10371432944707029,0.0
-0.019857468588050434,0.0658313412465264,0.10370869680746755,0.0
-0.019840838890175686,0.06586728285161053,0.10364995642303901,0.0
-0.019848617297246133,0.06589008163095494,0.10365585728357521,0.0
-0.019837620238974122,0.06596142839925628,0.10374544307535208,0.0
-0.019819112994565128,0.06593111943377489,0.10372264429600767,0.0
-0.01980114219202306,0.06589464138682383,0.10374061509854973,0.0
-0.019813748575895854,0.06584689806066729,0.10376019522669258,0.0
-0.01983520625057295,0.06588283966575142,0.10379345462244208,0.0
-0.019839229564574904,0.06588123034015064,0.10370869680746755,0.0
-0.019883754239529875,0.06575463005955579,0.10361616058542258,0.0
-0.01985129950658077,0.06584582517693344,0.10357592744540303,0.0
-0.01982286808763362,0.06594372581764768,0.10361589236448912,0.0
-0.019841375332042614,0.0658646006422759,0.10372961804027772,0.0
-0.019884290681396802,0.0658275861534579,0.10371406122613683,0.0
-0.019894483076868422,0.06581015179278277,0.10349009674669465,0.0
-0.01987329362312479,0.06586996506094517,0.10355151934045784,0.0
-0.019873025402191328,0.06587532947961444,0.10383073733219354,0.0
-0.019870611413790155,0.0658667464097436,0.10373605534268085,0.0
-0.01987892626272753,0.06580934712998238,0.10370816036560063,0.0
-0.019884558902330266,0.06577796528076713,0.10369850441199593,0.0
-0.019866856320721663,0.06573719569888065,0.1036448602253032,0.0
-0.019859077913651216,0.06587184260747941,0.1037253265053423,0.0
-0.019856127483383116,0.06582731793252444,0.10371540233080415,0.0
-0.019873025402191328,0.06584180186293148,0.10364164157410163,0.0
-0.019907089460741215,0.06580827424624852,0.10365746660917599,0.0
-0.019885900006997585,0.06585574935147159,0.10366604967904683,0.0
-0.019880803809261775,0.06583777854892953,0.10359899444568091,0.0
-0.019859614355518144,0.06589195917748919,0.1036027495387494,0.0
-0.019899847495537696,0.065819539525454,0.10378487155257124,0.0
-0.01991594075154552,0.06581015179278277,0.10374222442415051,0.0
-0.019916477193412448,0.06573987790821528,0.10365156574863979,0.0
-0.019910844553809707,0.06576643178062819,0.10370923324933448,0.0
-0.0198636376695201,0.06591234396843243,0.10370440527253214,0.0
-0.019875171169659037,0.06581927130452053,0.10368858023745778,0.0
-0.019918354739946693,0.0658165890951859,0.10368589802812314,0.0
-0.019914331425944738,0.06581497976958511,0.10356493038713102,0.0
-0.019884558902330266,0.06581310222305087,0.10349385183976315,0.0
-0.01988697289073144,0.06578493902503718,0.10338736812917806,0.0
-0.019912185658477025,0.06574631521061841,0.10378460333163778,0.0
-0.01991030811194278,0.06579191276930724,0.10383529708806243,0.0
-0.0198695385300563,0.06579700896704305,0.1037135247842699,0.0
-0.019892605530334177,0.06567604132605093,0.10361213727142063,0.0
-0.019882413134862557,0.06571895667540512,0.10365558906264175,0.0
-0.019847544413512278,0.06583911965359684,0.10375241681962213,0.0
-0.019829305390036748,0.06581122467651662,0.10377897069203504,0.0
-0.019859614355518144,0.06575650760609003,0.10371593877267107,0.0
-0.019879462704594456,0.0657559711642231,0.10368375226065543,0.0
-0.019903334367672724,0.06571439691953623,0.10367275520238342,0.0
-0.019864710553253954,0.06568972059365757,0.10368858023745778,0.0
-0.019885095344197194,0.06569106169832489,0.10364995642303901,0.0
-0.019881608472062166,0.06578091571103523,0.10370494171439906,0.0
-0.019852640611248088,0.06577635595516634,0.10369179888865934,0.0
-0.0198665880997882,0.06573800036168104,0.10365424795797443,0.0
-0.019882413134862557,0.06571627446607048,0.10365263863237364,0.0
-0.019840034227375295,0.0657774288389002,0.10368160649318772,0.0
-0.019839229564574904,0.06572593041967517,0.10365907593477677,0.0
-0.019829305390036748,0.06571546980327009,0.10373444601708007,0.0
-0.019820990541099374,0.06579539964144226,0.10377226516869845,0.0
-0.019854786378715798,0.06577206442023092,0.10370869680746755,0.0
-0.01982796428536943,0.06571037360553428,0.10371593877267107,0.0
-0.01982662318070211,0.06568623372152255,0.10367919250478655,0.0
-0.019812139250295072,0.06581176111838355,0.10363681359729929,0.0
-0.019846739750711887,0.0657567758270235,0.10370735570280024,0.0
-0.019858809692717753,0.0657412190128826,0.10377441093616616,0.0
-0.019847544413512278,0.0657138604776693,0.10370333238879828,0.0
-0.01980033752922267,0.06574202367568299,0.10360945506208599,0.0
-0.01979363200588608,0.06579835007171037,0.10319532194081807,0.0
-0.019798996424555352,0.06567577310511746,0.10348634165362616,0.0
-0.019838693122707977,0.06566155739564389,0.10397933172933242,0.0
-0.0198695385300563,0.06564707346523685,0.10376663252909571,0.0
-0.01982367275043401,0.06582222173478863,0.10365773483010945,0.0
-0.019832792262171776,0.06577903816450098,0.10365022464397247,0.0
-0.019853981715915407,0.06570259519846383,0.10367087765584918,0.0
-0.01983601091337334,0.06576884576902936,0.1036958222026613,0.0
-0.01982796428536943,0.06573451348954601,0.10365800305104292,0.0
-0.019842179994843005,0.06569079347739143,0.10369662686546169,0.0
-0.01985639570431658,0.06574738809435227,0.10370440527253214,0.0
-0.019861223681118926,0.06574738809435227,0.1036381547019666,0.0
-0.019862564785786244,0.06577394196676517,0.10364351912063588,0.0
-0.019843789320443787,0.06574577876875148,0.10369421287706052,0.0
-0.01987678049525982,0.06571788379167126,0.10369716330732862,0.0
-0.019888850437265685,0.06568864770992372,0.10372854515654387,0.0
-0.019858809692717753,0.06562802977896091,0.10370118662133057,0.0
-0.01987383006499172,0.06567818709351864,0.1036596123766437,0.0
-0.01988563178606412,0.06569454857045992,0.10365397973704096,0.0
-0.019891532646600322,0.06564331837216836,0.10363654537636582,0.0
-0.019858809692717753,0.06567040868644819,0.10360677285275136,0.0
-0.01988348601859641,0.06561730094162237,0.10362662120182767,0.0
-0.0198754393905925,0.0656258840114932,0.10343672078093538,0.0
-0.01985129950658077,0.06567389555858322,0.10350002092123281,0.0
-0.019921305170214794,0.06563741751163214,0.10378084823856928,0.0
-0.019894483076868422,0.06554675883612142,0.10357860965473767,0.0
-0.019906553018874288,0.06554729527798835,0.10370869680746755,0.0
-0.01997924089184295,0.06559181995294332,0.10373900577294895,0.0
-0.019952150577563117,0.06559879369721337,0.10356037063126214,0.0
-0.019943299286758816,0.06557089872013315,0.10360784573648521,0.0
-0.019962074752101273,0.0655808228946713,0.10373927399388241,0.0
-0.019998821019985798,0.06555265969665762,0.10365853949290985,0.0
-0.020019205810929037,0.06551430410317231,0.10361052794581985,0.0
-0.02002510667146524,0.065523960056777,0.10359872622474744,0.0
-0.020045223241475014,0.0655121583357046,0.10353006166578074,0.0
-0.020075263986022947,0.06551323121943846,0.10349143785136197,0.0
-0.020094307672298868,0.06553522533598248,0.10347775858375532,0.0
-0.02010825516083898,0.06548909133542673,0.10346863907201756,0.0
-0.020137759463519984,0.06549070066102751,0.10344932716480817,0.0
-0.02015358449859434,0.06541720812525846,0.10342170040866142,0.0
-0.020220103290093338,0.06525654378611372,0.10339729230371622,0.0
-0.020186575673410374,0.06545690482341109,0.103417408873726,0.0
-0.02017316462673719,0.06559852547627991,0.10348982852576119,0.0
-0.02022761347623032,0.06550142949836606,0.10348446410709192,0.0
-0.020263823302247918,0.0655100125682369,0.10342840593199801,0.0
-0.02022466304596222,0.06554970926638952,0.10324628391817617,0.0
-0.020159485359130543,0.06564439125590221,0.10337127487317024,0.0
-0.02023995163916965,0.06556955761546583,0.10367651029545191,0.0
-0.02025604489517747,0.06555346435945801,0.10347373526975337,0.0
-0.020259263546379035,0.06549579685876332,0.10349412006069661,0.0
-0.020273211034919147,0.06550733035890226,0.10349331539789622,0.0
-0.020249071150907415,0.06559155173200985,0.10346488397894907,0.0
-0.0202203715110268,0.06559798903441298,0.10342223685052834,0.0
-0.020151706952060096,0.06553415245224863,0.10342170040866142,0.0
-0.02017101885926948,0.06556499785959695,0.10336966554756946,0.0
-0.020167531987134453,0.06555561012692572,0.10316072144040125,0.0
-0.02018040659194071,0.06548345869582399,0.10328678527912918,0.0
-0.020137759463519984,0.06545851414901187,0.10357860965473767,0.0
-0.020118983998177527,0.06548453157955784,0.10334633032635812,0.0
-0.02013454081231842,0.06554085797558522,0.10322455802256561,0.0
-0.020105036509637415,0.065542467301186,0.10330743829100589,0.0
-0.020105036509637415,0.0655247647195774,0.10329939166300198,0.0
-0.020114424242308644,0.06549982017276527,0.10320310034788852,0.0
-0.020106645835238197,0.06555614656879265,0.10308669246276528,0.0
-0.020088138590829203,0.06546817010261656,0.10317225494054019,0.0
-0.0201125466957744,0.06549847906809796,0.10341204445505672,0.0
-0.020100476753768533,0.06556204742932885,0.10328624883726226,0.0
-0.020078214416291047,0.06556204742932885,0.10321034231309203,0.0
-0.020057829625347808,0.06552556938237779,0.10326640048818594,0.0
-0.02009886742816775,0.0654738027422193,0.10331977645394522,0.0
-0.020070704230154064,0.0654885548935598,0.1032586220811155,0.0
-0.020074459323222556,0.06556633896426427,0.10322455802256561,0.0
-0.02008706570709535,0.0654856044632917,0.1032527212205793,0.0
-0.02006668091615211,0.06556419319679656,0.1032460156972427,0.0
-0.020072045334821383,0.06559477038321142,0.10318539776627991,0.0
-0.020092698346698086,0.06552556938237779,0.10319907703388656,0.0
-0.020087333928028812,0.06545046752100796,0.10317413248707444,0.0
-0.02003771305533803,0.06561220474388656,0.10321999826669673,0.0
-0.020106645835238197,0.06542418186952852,0.10329027215126421,0.0
-0.020094575893232332,0.06543491070686706,0.10332514087261449,0.0
-0.02005300164854546,0.06558296866213902,0.10329000393033075,0.0
-0.020088943253629594,0.06555212325479069,0.1031870070918807,0.0
-0.02009886742816775,0.06556419319679656,0.10291878615841701,0.0
-0.02007472754415602,0.0655365664406498,0.10302661097366941,0.0
-0.020098330986300823,0.06550384348676723,0.10346622508361639,0.0
-0.02009806276536736,0.0655298609173132,0.10338093082677494,0.0
-0.020124080195913337,0.06550464814956762,0.10319156684774958,0.0
-0.020087602148962276,0.06550250238209991,0.10327417889525639,0.0
-0.020065071590551327,0.0655668754061312,0.10340346138518589,0.0
-0.020086797486161885,0.06559503860414488,0.10328410306979455,0.0
-0.020070167788287137,0.06555641478972611,0.10328329840699416,0.0
-0.020111742032974007,0.06552503294051086,0.10323019066216835,0.0
-0.020052733427611998,0.06559852547627991,0.10325406232524661,0.0
-0.020070167788287137,0.06555024570825645,0.10328463951166147,0.0
-0.020102086079369315,0.06557304448760086,0.10323582330177108,0.0
-0.020080091962825293,0.06564546413963607,0.10326318183698438,0.0
-0.020057829625347808,0.06562722511616052,0.1032940272443327,0.0
-0.020020278694662892,0.06557438559226818,0.10326532760445209,0.0
-0.02010476828870395,0.06553790754531712,0.10321329274336014,0.0
-0.020125421300580655,0.06561247296482002,0.10324842968564388,0.0
-0.020135613696052275,0.06553978509185136,0.10334525744262427,0.0
-0.02010020853283507,0.06554058975465175,0.10335732738463013,0.0
-0.020097794544433896,0.06569374390765953,0.10305960214848545,0.0
-0.02015197517299356,0.06553978509185136,0.10299469268258724,0.0
-0.020164045114999425,0.06556472963866349,0.10331414381434248,0.0
-0.020099940311901605,0.06563661284883175,0.10317654647547561,0.0
-0.02014178277752194,0.06556794828986505,0.10328758994192958,0.0
-0.020162435789398643,0.06554193085931907,0.10330180565140315,0.0
-0.020153048056727414,0.06553790754531712,0.10331816712834443,0.0
-0.02014178277752194,0.06559718437161259,0.10324467459257539,0.0
-0.020133467928584566,0.06555829233626036,0.10323689618550494,0.0
-0.0201812112547411,0.0655100125682369,0.10320792832469086,0.0
-0.02021286132488982,0.06553763932438365,0.10312236584691595,0.0
-0.020191403650212724,0.06554139441745215,0.10331924001207829,0.0
-0.02017906548727339,0.0655690211735989,0.10327793398832488,0.0
-0.0201753103942049,0.06557626313880242,0.10325084367404505,0.0
-0.02021017911555518,0.06552261895210969,0.10328598061632879,0.0
-0.020184429905942665,0.06548587268422516,0.10328276196512723,0.0
-0.020141246335655012,0.06550250238209991,0.10318754353374762,0.0
-0.020137759463519984,0.06566155739564389,0.10318486132441299,0.0
-0.02015117051019317,0.06559423394134449,0.10317976512667718,0.0
-0.020145806091523895,0.06558726019707443,0.10326210895325053,0.0
-0.020097794544433896,0.06558726019707443,0.10331950823301175,0.0
-0.020074995765089483,0.06560710854615075,0.10320685544095701,0.0
-0.02012220264937909,0.06558484620867326,0.10321034231309203,0.0
-0.020135077254185348,0.06554729527798835,0.10323528685990416,0.0
-0.020166995545267526,0.06545931881181226,0.10317949690574371,0.0
-0.020135077254185348,0.06562507934869281,0.10321490206896092,0.0
-0.020072045334821383,0.06570259519846383,0.10318003334761064,0.0
-0.020074191102289092,0.06565002389550495,0.10321758427829555,0.0
-0.0200763368697568,0.06570232697753037,0.10301722324099818,0.0
-0.02003905416000535,0.06563661284883175,0.10296223794963813,0.0
-0.020075263986022947,0.06571010538460081,0.10340882580385516,0.0
-0.020063998706817472,0.06570688673339925,0.1032977823374012,0.0
-0.02005595207881356,0.06564278193030142,0.10320283212695505,0.0
-0.020059975392815517,0.06567389555858322,0.10329429546526617,0.0
-0.020070704230154064,0.06552905625451282,0.10325459876711354,0.0
-0.020068558462686355,0.06558216399933862,0.10333157817501762,0.0
-0.019980581996510267,0.06583831499079645,0.10337583462903913,0.0
-0.019999357461852725,0.06577260086209785,0.1033626918032994,0.0
-0.02001732826439479,0.06568811126805679,0.10333855191928767,0.0
-0.01999533414785077,0.06570152231472998,0.10331950823301175,0.0
-0.019978972670909485,0.0656784553144521,0.10333774725648728,0.0
-0.019976826903441776,0.06564251370936795,0.10327525177899025,0.0
-0.019977631566242167,0.06569776722166148,0.10334901253569276,0.0
-0.01997414469410714,0.06570313164033076,0.1033538405124951,0.0
-0.019951882356629654,0.06565619297697461,0.10330824295380628,0.0
-0.01989367841406803,0.06572968551274366,0.10329268613966539,0.0
-0.019925864926083676,0.06568086930285327,0.1032371644064384,0.0
-0.019964488740502447,0.06555105037105684,0.10323045888310181,0.0
-0.019928010693551386,0.0656969625588611,0.10330743829100589,0.0
-0.019864978774187417,0.06573987790821528,0.10329670945366734,0.0
-0.019899042832737305,0.06565297432577305,0.10324065127857343,0.0
-0.019950004810095408,0.0656578023025754,0.10327712932552449,0.0
-0.019917013635279375,0.06570044943099612,0.10320014991762042,0.0
-0.01992532848421675,0.06566799469804702,0.10322053470856365,0.0
-0.01993122934475295,0.065705009186865,0.10316957273120556,0.0
-0.019954296345030827,0.06563285775576326,0.10297377144977707,0.0
-0.019925864926083676,0.06571707912887087,0.1032763246627241,0.0
-0.019961538310234346,0.06562802977896091,0.1032889310465969,0.0
-0.01998433708957876,0.06559021062734254,0.10327122846498829,0.0
-0.019896360623402668,0.0656489510117711,0.10328356662792762,0.0
-0.019891264425666858,0.06558886952267522,0.10321704783642863,0.0
-0.019909235228208925,0.06566397138404506,0.10317896046387678,0.0
-0.019919964065547476,0.06560871787175153,0.10313041247491986,0.0
-0.019933911554087587,0.06546629255608231,0.10308240092782986,0.0
-0.019867929204455518,0.06574256011754992,0.10326076784858321,0.0
-0.01992318271674904,0.06567738243071825,0.10324762502284349,0.0
-0.019920500507414403,0.06561435051135427,0.10307971871849522,0.0
-0.01990011571647116,0.06562212891842471,0.10312156118411556,0.0
-0.019896360623402668,0.06563205309296287,0.10334337989609002,0.0
-0.019885900006997585,0.0656052309996165,0.10319076218494919,0.0
-0.019896092402469204,0.06554380840585332,0.10316286720786896,0.0
-0.019879462704594456,0.06558538265054019,0.10324333348790807,0.0
-0.019871952518457473,0.06570044943099612,0.10323770084830533,0.0
-0.019870074971923227,0.06561649627882198,0.10318861641748148,0.0
-0.019859882576451608,0.06554702705705488,0.10321490206896092,0.0
-0.019888313995398758,0.06561595983695505,0.10312504805625058,0.0
-0.019864978774187417,0.06569803544259495,0.10300434863619193,0.0
-0.019768419238140492,0.06567711420978478,0.10321168341775935,0.0
-0.01980167863388999,0.06565619297697461,0.10332835952381605,0.0
-0.019848617297246133,0.06566128917471042,0.10325459876711354,0.0
-0.019824745634167865,0.06568328329125445,0.10319693126641885,0.0
-0.019797655319888034,0.06566799469804702,0.10309903062570461,0.0
-0.019783707831347922,0.06564868279083763,0.1032283131156341,0.0
-0.019792022680285296,0.06569454857045992,0.10327069202312136,0.0
-0.019805165506025017,0.06564278193030142,0.10322697201096678,0.0
-0.019812407471228536,0.06562507934869281,0.10317198671960673,0.0
-0.019772978994009375,0.06562561579055974,0.10311780609104707,0.0
-0.019758226842668872,0.06573263594301176,0.10315455235893159,0.0
-0.01971718903984893,0.06575784871075735,0.10320900120842472,0.0
-0.01973408695865714,0.06567684598885132,0.10318486132441299,0.0
-0.019764127703205073,0.06569106169832489,0.10318807997561455,0.0
-0.019722821679451667,0.06574309655941685,0.10319424905708421,0.0
-0.019700291121040717,0.0657479245362192,0.10308293736969679,0.0
-0.019726576772520158,0.06580156872291193,0.10316957273120556,0.0
-0.019765737028805856,0.06581337044398433,0.10317869224294332,0.0
-0.019735696284257923,0.06577984282730137,0.10314275063785919,0.0
-0.019732745853989823,0.06577206442023092,0.10308347381156371,0.0
-0.01973703738892524,0.06573585459421333,0.10283295545970864,0.0
-0.01974267002852798,0.06573263594301176,0.10323528685990416,0.0
-0.019754203528666917,0.0657138604776693,0.10336430112890019,0.0
-0.019678297004496696,0.06581229756025048,0.10328705350006265,0.0
-0.019668104609025076,0.06576616355969472,0.10324869790657734,0.0
-0.019692244493036807,0.06572458931500785,0.1032430652669746,0.0
-0.019687952958101388,0.06573665925701372,0.10327793398832488,0.0
-0.019717457260782393,0.0656548518723073,0.10320283212695505,0.0
-0.019701364004774572,0.06560764498801767,0.10315750278919969,0.0
-0.019657107550753065,0.06565807052350886,0.10328356662792762,0.0
-0.019647719818081836,0.06568167396565366,0.10329268613966539,0.0
-0.019674005469561277,0.06574095079194914,0.10325889030204896,0.0
-0.019727649656254013,0.0655639249758631,0.10321436562709399,0.0
-0.019657912213553456,0.06575463005955579,0.10329885522113505,0.0
-0.019638332085410607,0.06575945803635813,0.10325406232524661,0.0
-0.019609364224596526,0.0656599480700431,0.1032527212205793,0.0
-0.019594612073256024,0.06577206442023092,0.1032586220811155,0.0
-0.01962706680620513,0.06573853680354796,0.10322107115043058,0.0
-0.019635649876075967,0.06566611715151277,0.10316152610320165,0.0
