-0.06908942092530977,0.09781910155047197,0.0018635990457056817,0.0
-0.06906742680876575,0.09780193541073029,0.001846432905964006,0.0
-0.06903363097114933,0.0977944252245933,0.001842677812895514,0.0
-0.0690634034947638,0.09778155061978705,0.0018448235803632234,0.0
-0.06902451145941156,0.09784485076008448,0.0018542113130344527,0.0
-0.06901566016860726,0.09778155061978705,0.001792520498337805,0.0
-0.06903497207581664,0.09784002278328213,0.0018507244408994248,0.0
-0.06905535686675988,0.09784055922514906,0.0018051268822105982,0.0
-0.06903363097114933,0.09790117715611185,0.0018560888595686984,0.0
-0.06897194015645268,0.09785826180675766,0.0018059315450109892,0.0
-0.06901914704074229,0.09777430865458353,0.0017715992655276376,0.0
-0.06903497207581664,0.09775741073577532,0.0017769636841969115,0.0
-0.06907949675077162,0.09786121223702576,0.0018558206386352348,0.0
-0.06907761920423737,0.0978883025513056,0.0018080773124786987,0.0
-0.06895987021444681,0.09790949200504923,0.0018051268822105982,0.0
-0.06899339783112977,0.09786121223702576,0.0018161239404826093,0.0
-0.06908834804157592,0.09784887407408643,0.0017941298239385873,0.0
-0.06911168326278726,0.09784458253915101,0.0017651619631245093,0.0
-0.06917847027521971,0.09784216855074984,0.00182926676622233,0.0
-0.06926725140419619,0.09781856510860504,0.0017927887192712687,0.0
-0.069146820205071,0.09781481001553655,0.0017817916609992577,0.0
-0.06911275614652111,0.09783975456234867,0.0017817916609992577,0.0
-0.069146820205071,0.09789393519090833,0.0018397273826274135,0.0
-0.06921280255470307,0.09787757371396705,0.0018394591616939498,0.0
-0.06916425456574614,0.09786282156262655,0.0018289985452888662,0.0
-0.06925625434592418,0.09786845420222928,0.001779914114465012,0.0
-0.06925920477619228,0.09786657665569504,0.001780718777265403,0.0
-0.06921333899656999,0.09785745714395727,0.0018104913008798718,0.0
-0.06926859250886351,0.097852092725288,0.001862257941038363,0.0
-0.06930667988141535,0.09779308411992599,0.0018088819752790897,0.0
-0.06942147844093781,0.09785343382995532,0.0018088819752790897,0.0
-0.06947431796483015,0.09784055922514906,0.0017997624635413246,0.0
-0.06949523919764032,0.09787998770236822,0.0018276574406215476,0.0
-0.06948370569750138,0.09787140463249738,0.001808613754345626,0.0
-0.06952098840725283,0.09785987113235844,0.0018161239404826093,0.0
-0.06961191530369702,0.0978579935858242,0.0018040539984767435,0.0
-0.06966931458345825,0.09789178942344062,0.0018188061498172461,0.0
-0.06968674894413339,0.09789769028397682,0.0018080773124786987,0.0
-0.06972644564228601,0.09785316560902185,0.001787424300601995,0.0
-0.06968192096733104,0.09786469910916079,0.0018083455334121624,0.0
-0.06962639923410406,0.09789473985370872,0.0017992260216743972,0.0
-0.06961862082703361,0.09784297321355023,0.001776427242329984,0.0
-0.06959957714075769,0.09789822672584375,0.001795202707672442,0.0
-0.06956792707060898,0.09787918303956783,0.0017635526375237272,0.0
-0.06959689493142306,0.09788293813263632,0.0017498733699170793,0.0
-0.06965617175771853,0.09787328217903163,0.001771331044594174,0.0
-0.06961164708276356,0.09781212780620191,0.001724392381238029,0.0
-0.0695633673147401,0.09785611603928995,0.0017187597416352916,0.0
-0.06967146035092596,0.09785718892302381,0.0017445089512478057,0.0
-0.06948155993003367,0.0978727457371647,0.0017112495554983086,0.0
-0.06943328016201021,0.09779174301525867,0.001670748194545292,0.0
-0.06955183381460116,0.09787676905116666,0.0017648937421910456,0.0
-0.0695330583492587,0.09782205198074007,0.0017496051489836156,0.0
-0.06947378152296323,0.09782687995754241,0.0016924740901558507,0.0
-0.06955290669833501,0.09784377787635062,0.001741558520979705,0.0
-0.06950033539537613,0.09785772536489074,0.001717686857901437,0.0
-0.06944266789468144,0.09788910721410599,0.0017506780327174703,0.0
-0.06943381660387714,0.09784511898101794,0.0018045904403436708,0.0
-0.06949202054643876,0.09785987113235844,0.0017839374284669672,0.0
-0.069464393790292,0.09786469910916079,0.0017622115328564088,0.0
-0.06943435304574407,0.09789205764437409,0.0017080309042967444,0.0
-0.06947109931362859,0.09785960291142498,0.0016584100316059628,0.0
-0.0694378399178791,0.09784806941128604,0.0016466083105335606,0.0
-0.06940914027799848,0.09786523555102772,0.0016884507761538953,0.0
-0.0693831228474525,0.09782419774820778,0.001657337147872108,0.0
-0.06937453977758166,0.0978306350506109,0.0016570689269386444,0.0
-0.06924767127605334,0.09788266991170286,0.0016871096714865768,0.0
-0.06936461560304351,0.09786308978356001,0.0016353430313280858,0.0
-0.06934154860276563,0.09785531137648956,0.0016337337057273037,0.0
-0.0693270646723586,0.09784216855074984,0.00163856168252965,0.0
-0.06937829487065016,0.09782795284127627,0.001687914334286968,0.0
-0.06944320433654837,0.09783465836461286,0.001673430403879929,0.0
-0.06938768260332139,0.0978158828992704,0.0015886725889054049,0.0
-0.06941825978973624,0.09781346891086923,0.0016095938217155722,0.0
-0.06942389242933898,0.0977944252245933,0.0015779437515668574,0.0
-0.06940002076626071,0.09784699652755219,0.001578211972500321,0.0
-0.06945205562735267,0.09782151553887314,0.0015806259609014942,0.0
-0.06941262715013351,0.09781025025966766,0.0015626551583594272,0.0
-0.06936917535891239,0.09785853002769113,0.001534760181279204,0.0
-0.06937695376598284,0.09787328217903163,0.0015497805535531703,0.0
-0.06936515204491044,0.09784055922514906,0.0015261771114083661,0.0
-0.0693957292313253,0.09783546302741325,0.0015519263210208797,0.0
-0.06934959523076954,0.09787355039996509,0.0015406610418154051,0.0
-0.06938768260332139,0.09783519480647979,0.0015202762508721651,0.0
-0.06944937341801803,0.09785048339968722,0.0015473665651519971,0.0
-0.06937856309158362,0.09789366696997487,0.0015470983442185335,0.0
-0.06936086050997502,0.0978255388528751,0.0015460254604846787,0.0
-0.06943220727827636,0.09783626769021364,0.0014800431108526124,0.0
-0.06941450469666775,0.09783975456234867,0.0015175940415375281,0.0
-0.06937909953345055,0.09780461762006493,0.0015178622624709918,0.0
-0.06917578806588508,0.09783573124834671,0.001435250214964177,0.0
-0.06919617285682832,0.09788025592330168,0.0016074480542478627,0.0
-0.06926295986926077,0.09785343382995532,0.0016629697874748454,0.0
-0.06937453977758166,0.09783599946928018,0.0016130806938506,0.0
-0.06930614343954843,0.09785236094622146,0.0015972556587762427,0.0
-0.06918544401948977,0.09785316560902185,0.001584112833036522,0.0
-0.06930587521861496,0.09782392952727431,0.001571506449163729,0.0
-0.06926242342739385,0.09777886841045241,0.0015575589606236172,0.0
-0.06914547910040368,0.0978402910042156,0.0015197398090052378,0.0
-0.06912643541412776,0.09784404609728409,0.0015242995648741204,0.0
-0.0691379689142667,0.09783519480647979,0.0014977456924612155,0.0
-0.06912777651879508,0.09779952142232912,0.001559436507157863,0.0
-0.06916800965881463,0.09782929394594359,0.0015731157747645112,0.0
-0.06914547910040368,0.09779978964326258,0.0015285910998095393,0.0
-0.06927717557873435,0.09784994695782029,0.0015637280420932819,0.0
-0.06913850535613363,0.09785638426022342,0.0016095938217155722,0.0
-0.06909022558811016,0.09786362622542694,0.0015792848562341758,0.0
-0.06913957823986748,0.09782929394594359,0.0015430750302165782,0.0
-0.06912938584439586,0.09783251259714515,0.0013896526562753506,0.0
-0.06910980571625301,0.0978424367716833,0.0015430750302165782,0.0
-0.06909424890211212,0.09782097909700621,0.0016382934615961863,0.0
-0.06913153161186357,0.09781320068993576,0.00157740730969993,0.0
-0.06921682586870502,0.0977981803176618,0.0015521945419543434,0.0
-0.06917605628681854,0.09782527063194163,0.0015133025066021092,0.0
-0.06916264524014536,0.09785477493462263,0.001479506668985685,0.0
-0.0692820035555367,0.09784350965541716,0.0015395881580815504,0.0
-0.06926215520646038,0.09782044265513928,0.0015119614019347908,0.0
-0.06921414365937038,0.09783492658554632,0.001495599924993506,0.0
-0.06912107099545849,0.09789500807464219,0.0014934541575257966,0.0
-0.06908271540197318,0.09778906080592403,0.001457512552441663,0.0
-0.06910229553011603,0.09780783627126649,0.001501500785529707,0.0
-0.06908781159970899,0.09784377787635062,0.0015323461928780308,0.0
-0.06909344423931173,0.09784431431821755,0.0014331044474964673,0.0
-0.06907332766930195,0.09784270499261677,0.001478702006185294,0.0
-0.06908137429730586,0.09785477493462263,0.0014483930407038974,0.0
-0.06908352006477357,0.09781185958526845,0.001441955738300769,0.0
-0.06910417307665027,0.09784109566701599,0.0013746322840013842,0.0
-0.06913957823986748,0.09782097909700621,0.0013319851555806585,0.0
-0.06918705334509055,0.09789554451650911,0.0013783873770698758,0.0
-0.06922782292697703,0.09787462328369895,0.001419961621756747,0.0
-0.06914869775160525,0.09783868167861481,0.0013832153538722222,0.0
-0.06917686094961893,0.09788213346983593,0.0013622941210620547,0.0
-0.06942174666187127,0.09791807507492006,0.0013081134925023905,0.0
-0.06933162442822748,0.09790680979571459,0.0013220609810425021,0.0
-0.06937695376598284,0.0979089555631823,0.0012949706667626697,0.0
-0.06934905878890261,0.09790037249331146,0.0013571979233262448,0.0
-0.06930614343954843,0.09785906646955805,0.001306772387835072,0.0
-0.06932974688169323,0.09789393519090833,0.0012882651434260777,0.0
-0.06937453977758166,0.0978992996095776,0.001362025900128591,0.0
-0.06942281954560513,0.09792451237732319,0.0014145972030874731,0.0
-0.06941852801066971,0.0978942034118418,0.0013944806330776968,0.0
-0.06934020749809831,0.09792290305172241,0.0014213027264240654,0.0
-0.06935013167263647,0.09790868734224883,0.0014132560984201547,0.0
-0.06938204996371865,0.09793121790065978,0.0014272035869602664,0.0
-0.06930077902087915,0.09793899630773023,0.0013848246794730043,0.0
-0.06928093067180284,0.09789313052810794,0.0013346673649152953,0.0
-0.06932760111422552,0.09790707801664805,0.0013368131323830048,0.0
-0.06928683153233904,0.09793014501692593,0.0013405682254514963,0.0
-0.06923077335724513,0.09792022084238777,0.0012764634223536755,0.0
-0.06928253999740362,0.09787355039996509,0.0012979210970307706,0.0
-0.06927154293913161,0.09791566108651889,0.0013244749694436753,0.0
-0.0692272864851101,0.09794355606359911,0.0013078452715689268,0.0
-0.06926832428793005,0.09794248317986526,0.0012788774107548488,0.0
-0.06925357213658954,0.09796420907547582,0.001268416794349765,0.0
-0.06928039422993591,0.09792638992385744,0.0012767316432871392,0.0
-0.06932411424209049,0.09792585348199051,0.0013140143530385917,0.0
-0.06927798024153474,0.0979532120172038,0.0012633205966139551,0.0
-0.06924552550858563,0.0979422149589318,0.0012300612008644583,0.0
-0.06919429531029407,0.0979628679708085,0.0011750759095044026,0.0
-0.06928173533460323,0.09792048906332124,0.0012260378868625028,0.0
-0.06920395126389876,0.09791566108651889,0.001293093120228424,0.0
-0.0691851757985563,0.09794999336600224,0.0012702943408840108,0.0
-0.06920019617083027,0.09790922378411576,0.0012187959216589835,0.0
-0.06920180549643105,0.0979333636681275,0.0011600555372304365,0.0
-0.0692066334732334,0.0979451653891999,0.0011715890373693747,0.0
-0.069194831752161,0.09791405176091811,0.001188486956177587,0.0
-0.06919000377535865,0.09789018009783984,0.0011300147926825038,0.0
-0.06911731590239,0.09790922378411576,0.0011471809324241796,0.0
-0.06930721632328228,0.09794945692413531,0.0012576879570112176,0.0
-0.0692280911479105,0.09793363188906096,0.0012603701663458544,0.0
-0.06911168326278726,0.09789018009783984,0.0012110175145885367,0.0
-0.0690752052158362,0.09788106058610208,0.0011772216769721125,0.0
-0.06912884940252893,0.09785370205088878,0.0011903645027118328,0.0
-0.06918839444975787,0.0978365359111471,0.0012373031660679777,0.0
-0.06918678512415709,0.09790493224918034,0.0011351109904183137,0.0
-0.06920180549643105,0.09791297887718425,0.0011415482928214423,0.0
-0.06918705334509055,0.09792451237732319,0.0012249650031286481,0.0
-0.06920314660109837,0.09789554451650911,0.0012440086894045697,0.0
-0.0692487441597872,0.09787891481863437,0.001236230282334123,0.0
-0.06931284896288502,0.09792746280759129,0.0012348891776668045,0.0
-0.06934047571903178,0.09791244243531733,0.0012496413290073072,0.0
-0.06938231818465211,0.09791431998185157,0.001267612131549374,0.0
-0.06933832995156407,0.09793014501692593,0.0012469591196726704,0.0
-0.06935710541690653,0.09789742206304336,0.0012222827937940113,0.0
-0.06938178174278518,0.09794114207519794,0.0012630523756804915,0.0
-0.06948746079056987,0.09792102550518816,0.0012761952014202118,0.0
-0.06948316925563446,0.09792719458665783,0.0013086499343693179,0.0
-0.06958750719875183,0.09790573691198073,0.001356929702392781,0.0
-0.06960091824542501,0.09789286230717448,0.0013164283414397648,0.0
-0.06959501738488881,0.09793229078439364,0.001313746132105128,0.0
-0.06964544292037998,0.09790627335384766,0.0013260842950444573,0.0
-0.06962183947823518,0.09797198748254626,0.0013242067485102116,0.0
-0.06948558324403563,0.09804816222764995,0.0012238921193947934,0.0
-0.06954807872153267,0.09799988245962649,0.0013368131323830048,0.0
-0.06957275504741132,0.09800095534336034,0.0013327898183810496,0.0
-0.06953064436085753,0.09799183583162258,0.0012853147131579772,0.0
-0.06950462693031155,0.09799076294788872,0.0012944342248957423,0.0
-0.06951669687231742,0.09800524687829576,0.001297652876097307,0.0
-0.06950838202338004,0.09804145670431336,0.0013266207369113847,0.0
-0.06953386301205909,0.09801624393656777,0.0013075770506354631,0.0
-0.06959179873368725,0.09796984171507855,0.0012842418294241225,0.0
-0.06963310475744065,0.09799800491309224,0.0012474955615395977,0.0
-0.06959313983835456,0.09799854135495917,0.0013032855157000442,0.0
-0.06957034105901015,0.0980012235642938,0.001267612131549374,0.0
-0.06962639923410406,0.09801704859936816,0.0013132096902382007,0.0
-0.06962210769916864,0.09803609228564408,0.001280486736355631,0.0
-0.06960413689662658,0.09798861718042101,0.0013293029462460215,0.0
-0.06963176365277333,0.09799880957589263,0.001350224179056189,0.0
-0.06965483065305121,0.09799854135495917,0.0013075770506354631,0.0
-0.06965697642051892,0.09803045964604135,0.0013234020857098205,0.0
-0.06958536143128412,0.09805835462312157,0.0013164283414397648,0.0
-0.06954646939593188,0.09798083877335056,0.0012858511550249046,0.0
-0.06960360045475965,0.09793363188906096,0.0013370813533164685,0.0
-0.06959179873368725,0.09795857643587308,0.0013056995041012174,0.0
-0.06953064436085753,0.09806720591392587,0.0013306440509133401,0.0
-0.06961969371076747,0.09800873375043079,0.0013220609810425021,0.0
-0.06957892412888099,0.09797252392441319,0.0013099910390366363,0.0
-0.0694496416389515,0.09804226136711375,0.0013217927601090384,0.0
-0.0694016300918615,0.0981238005308867,0.0013539792721246806,0.0
-0.0694067262895973,0.09807847119313134,0.0013276936206452394,0.0
-0.06950918668618043,0.09803126430884174,0.0012971164342303796,0.0
-0.06946251624375775,0.09806935168139358,0.0013287665043790942,0.0
-0.06949926251164228,0.09806720591392587,0.0012882651434260777,0.0
-0.06945688360415501,0.0980167803784347,0.0012912155736941782,0.0
-0.06934557191676759,0.09804172492524682,0.001392603086543451,0.0
-0.06935120455637032,0.09801892614590241,0.0013113321437039547,0.0
-0.06931204430008463,0.09802187657617051,0.001306772387835072,0.0
-0.06939921610346032,0.09802026725056973,0.0013191105507744016,0.0
-0.06951723331418434,0.09798459386641906,0.0013231338647763569,0.0
-0.06948155993003367,0.09806371904179084,0.0012724401083517203,0.0
-0.06937561266131552,0.09804789400671649,0.0012646617012812735,0.0
-0.06935335032383803,0.09800095534336034,0.0012297929799309946,0.0
-0.06935442320757189,0.09801543927376738,0.0012153090495239556,0.0
-0.06936756603331161,0.09804601646018224,0.0013518335046569711,0.0
-0.06940323941746228,0.0980100748550981,0.001345127981320379,0.0
-0.06941128604546619,0.0979931769362899,0.0012579561779446813,0.0
-0.06945151918548574,0.09799478626189068,0.0012528599802088714,0.0
-0.06942201488280474,0.09804145670431336,0.0013116003646374184,0.0
-0.06941370003386736,0.09801570749470084,0.0012979210970307706,0.0
-0.06941316359200043,0.09804896689045034,0.0013169647833066922,0.0
-0.0694252335340063,0.09799505448282414,0.0013193787717078653,0.0
-0.06942040555720395,0.09802107191337012,0.0013381542370503232,0.0
-0.06940109364999457,0.09803019142510788,0.001298457538897698,0.0
-0.06943193905734289,0.09802321768083783,0.0012853147131579772,0.0
-0.06935576431223921,0.09807498432099632,0.0013810695864045126,0.0
-0.06932143203275586,0.09806157327432313,0.001368194981598256,0.0
-0.06936971180077932,0.09803582406471062,0.0013381542370503232,0.0
-0.06936381094024312,0.09805567241378693,0.0013435186557195968,0.0
-0.06947431796483015,0.09799585914562453,0.001318037667040547,0.0
-0.06935817830064038,0.09796662306387699,0.0013314487137137312,0.0
-0.0692959510440768,0.09811173058888084,0.0012957753295630607,0.0
-0.06933698884689675,0.09810824371674581,0.0013475419697215522,0.0
-0.06940055720812764,0.0980647919255247,0.0013775827142694847,0.0
-0.0694281839642744,0.09803716516937794,0.0013928713074769148,0.0
-0.06943676703414524,0.09806237793712352,0.0013606847954612726,0.0
-0.06945822470882233,0.09807122922792783,0.001383483574805686,0.0
-0.06943167083640943,0.09796259974987503,0.001356929702392781,0.0
-0.06945902937162272,0.09805325842538576,0.0013971628424123337,0.0
-0.06949631208137418,0.09812621451928788,0.0013368131323830048,0.0
-0.0694429361156149,0.09805272198351883,0.0013124050274378094,0.0
-0.06939814321972647,0.09807820297219788,0.0013534428302577532,0.0
-0.06947512262763055,0.0980883953676695,0.0013338627021149043,0.0
-0.069512405337382,0.09807176566979475,0.0013435186557195968,0.0
-0.06944990985988496,0.09805352664631922,0.0013038219575669716,0.0
-0.0693986796615934,0.09810663439114503,0.0013209880973086474,0.0
-0.06942657463867362,0.09810931660047967,0.001412987877486691,0.0
-0.06952447527938786,0.09809000469327028,0.001378119156136412,0.0
-0.06948531502310216,0.09808464027460101,0.001369804307199038,0.0
-0.06936488382397697,0.09808624960020179,0.0013649763303966917,0.0
-0.06938446395211982,0.09807498432099632,0.0013542474930581443,0.0
-0.0694016300918615,0.09805325842538576,0.001314550794905519,0.0
-0.06929487816034295,0.0980854449374014,0.00135102884185658,0.0
-0.06927851668340167,0.09807873941406481,0.0013936759702773058,0.0
-0.06927449336939971,0.09811763144941704,0.0014124514356197637,0.0
-0.06931016675355038,0.09808383561180062,0.0013928713074769148,0.0
-0.06933108798636055,0.09807847119313134,0.0013762416096021663,0.0
-0.06927798024153474,0.09812594629835442,0.0014277400288271937,0.0
-0.06927261582286547,0.09811414457728201,0.001457512552441663,0.0
-0.06933832995156407,0.09806532836739162,0.0014473201569700426,0.0
-0.06937695376598284,0.09807981229779866,0.0014363230986980317,0.0
-0.06930775276514921,0.09812245942621939,0.0014017225982812164,0.0
-0.06928575864860519,0.0980462846811157,0.0013622941210620547,0.0
-0.06931579939315312,0.09812567807742095,0.0014400781917665233,0.0
-0.06934074393996524,0.09813426114729179,0.001403868365748926,0.0
-0.06929139128820792,0.09812594629835442,0.0013641716675963005,0.0
-0.06925303569472262,0.09806908346046012,0.0013360084695826138,0.0
-0.06925303569472262,0.0980980513212742,0.0013848246794730043,0.0
-0.06929112306727446,0.0981039521818104,0.0014242531566921659,0.0
-0.06926886072979697,0.09810261107714308,0.0014290811334945121,0.0
-0.06927395692753278,0.09809295512353838,0.0014119149937528363,0.0
-0.06937293045198088,0.09809510089100609,0.0014127196565532274,0.0
-0.06933484307942904,0.09805620885565386,0.0014065505750835627,0.0
-0.06931419006755234,0.0980374333903114,0.0013593436907939542,0.0
-0.06921977629897312,0.09806854701859319,0.0013177694461070832,0.0
-0.0691674732169477,0.09809778310034073,0.0014239849357587022,0.0
-0.06926510563672848,0.0981275556239552,0.0014103056681520542,0.0
-0.06926617852046234,0.09810341573994347,0.0014044048076158533,0.0
-0.06921119322910228,0.09810556150741118,0.0013947488540111605,0.0
-0.06922621360137625,0.09809644199567341,0.0013794602608037305,0.0
-0.06928012600900245,0.09805513597192,0.001350224179056189,0.0
-0.06928253999740362,0.09806506014645816,0.0013883115516080322,0.0
-0.06925437679938994,0.09809402800727224,0.0014186205170894286,0.0
-0.06922031274084005,0.09807310677446207,0.0014097692262851269,0.0
-0.06936112873090848,0.09804172492524682,0.0014349819940307133,0.0
-0.06935093633543686,0.09807793475126442,0.0014231802729583111,0.0
-0.06936863891704546,0.0980706927860609,0.0013915302028095964,0.0
-0.06939304702199066,0.09813774801942682,0.001434445552163786,0.0
-0.0694399856853468,0.09813023783328984,0.0014701189363144562,0.0
-0.06950704091871272,0.09807283855352861,0.0014089645634847358,0.0
-0.06947512262763055,0.09810851193767928,0.0014915766109915509,0.0
-0.06946090691815697,0.0981128034726147,0.0014585854361755177,0.0
-0.06947565906949747,0.09812594629835442,0.0014424921801676964,0.0
-0.06956390375660702,0.09810234285620961,0.0014483930407038974,0.0
-0.06954539651219803,0.09810207463527615,0.00143256800562954,0.0
-0.06943167083640943,0.09806720591392587,0.0014145972030874731,0.0
-0.06958482498941719,0.09800551509922922,0.0013571979233262448,0.0
-0.06963337297837412,0.09809671021660687,0.0014773609015179756,0.0
-0.0696290814434387,0.09812406875182017,0.0014491977035042884,0.0
-0.06967789765332909,0.09801490283190045,0.0014221073892244564,0.0
-0.06957409615207864,0.09808732248393565,0.0014644862967117186,0.0
-0.06956953639620976,0.09811414457728201,0.0014628769711109366,0.0
-0.06963122721090641,0.09803904271591218,0.0014706553781813835,0.0
-0.06963042254810602,0.0981119988098143,0.0014612676455101545,0.0
-0.06965375776931736,0.09810073353060883,0.0014314951218956852,0.0
-0.06967494722306099,0.09805647707658732,0.001431763342829149,0.0
-0.06970767017694356,0.0980559406347204,0.0014505388081716072,0.0
-0.06969345446746998,0.09811146236794738,0.0014647545176451823,0.0
-0.06968674894413339,0.0980669376929924,0.001435250214964177,0.0
-0.06975192663096506,0.0980470893439161,0.0014196934008232833,0.0
-0.06978062627084568,0.0980492351113838,0.00135612503959239,0.0
-0.06977070209630752,0.09800873375043079,0.001436054877764568,0.0
-0.06980744836419205,0.09802214479710397,0.0014862121923222772,0.0
-0.06986082432995132,0.0980403838205795,0.0014770926805845119,0.0
-0.06983856199247383,0.0980639872627243,0.0014467837151031153,0.0
-0.06980074284085545,0.09808437205366755,0.001368194981598256,0.0
-0.06984419463207657,0.09809375978633877,0.0014883579597899867,0.0
-0.06986350653928595,0.0980403838205795,0.0014854075295218862,0.0
-0.06986672519048752,0.09809563733287302,0.001464218075778255,0.0
-0.06990588544677322,0.09809992886780844,0.0014341773312303223,0.0
-0.06999788522695126,0.09813962556596106,0.0014376642033653501,0.0
-0.06994316815652467,0.09810851193767928,0.0014620723083105455,0.0
-0.06989327906290042,0.09805379486725269,0.0014907719481911598,0.0
-0.06991822360971255,0.09809322334447185,0.0014819206573868581,0.0
-0.06994558214492584,0.09808061696059905,0.0014926494947254056,0.0
-0.06999815344788472,0.09805540419285347,0.001479506668985685,0.0
-0.07007781506512345,0.09804065204151297,0.001465827401379037,0.0
-0.06999868988975165,0.09798969006415487,0.0014373959824318864,0.0
-0.06992358802838182,0.09808222628619984,0.0014387370870992048,0.0
-0.06993914484252271,0.09805620885565386,0.001473605808449484,0.0
-0.07003409505296886,0.09801892614590241,0.0014534892384397077,0.0
-0.06998822927334657,0.09800283288989459,0.0014253260404260206,0.0
-0.06998125552907651,0.09804118848337989,0.001370608969999429,0.0
-0.0700241708784307,0.09804521179738185,0.0014156700868213279,0.0
-0.07003892302977122,0.0980285820995071,0.0014298857962949032,0.0
-0.07005850315791406,0.09798969006415487,0.0014183522961559649,0.0
-0.0700855934721939,0.09803206897164213,0.0014800431108526124,0.0
-0.07004375100657356,0.0980706927860609,0.001421570947357529,0.0
-0.07007030487898647,0.09807847119313134,0.0014119149937528363,0.0
-0.07011938930981032,0.0980610368324562,0.0013783873770698758,0.0
-0.07007727862325652,0.09806371904179084,0.0013668538769309375,0.0
-0.07006172180911563,0.09804950333231727,0.0013419093301188147,0.0
-0.07016847374063417,0.09807793475126442,0.0013639034466628368,0.0
-0.07015211226369289,0.09807444787912939,0.0013767780514690937,0.0
-0.07007325530925457,0.09811092592608045,0.0013875068888076411,0.0
-0.07004562855310781,0.09809563733287302,0.0013987721680131157,0.0
-0.07011992575167725,0.09811736322848358,0.0014296175753614395,0.0
-0.07017035128716842,0.09808920003046989,0.0014159383077547915,0.0
-0.07020039203171635,0.09806532836739162,0.0013888479934749595,0.0
-0.07012824060061462,0.09811146236794738,0.001421570947357529,0.0
-0.07014272453102166,0.098073643216329,0.0013869704469407138,0.0
-0.07025269511374177,0.09808517671646794,0.0013829471329387586,0.0
-0.07025564554400987,0.0980285820995071,0.0013676585397313285,0.0
-0.07022694590412926,0.09813667513569296,0.001399576830813507,0.0
-0.07012207151914496,0.09813104249609023,0.001390993760942669,0.0
-0.0701268994959473,0.09808329916993369,0.0014298857962949032,0.0
-0.07015506269396099,0.0981119988098143,0.0014792384480522213,0.0
-0.07021299841558915,0.09810797549581235,0.0014213027264240654,0.0
-0.07015774490329563,0.09815464593823503,0.0013974310633457973,0.0
-0.07017839791517233,0.09820077993879078,0.0014510752500385346,0.0
-0.07020066025264982,0.09817610361291212,0.0014907719481911598,0.0
-0.07015881778702948,0.09814847685676537,0.001450807029105071,0.0
-0.07016954662436803,0.0981060979492781,0.0014145972030874731,0.0
-0.07025108578814099,0.09809322334447185,0.0014408828545669143,0.0
-0.07035032753352255,0.09811521746101587,0.0014636816339113276,0.0
-0.07032001856804115,0.09812299586808632,0.0014210345054906017,0.0
-0.07018537165944239,0.09811763144941704,0.0014639498548447913,0.0
-0.07015372158929367,0.09809268690260492,0.0014827253201872492,0.0
-0.07020441534571831,0.0981178996703505,0.0014870168551226683,0.0
-0.07020843865972026,0.09809671021660687,0.0014781655643183666,0.0
-0.07015506269396099,0.09813157893795715,0.0014848710876549588,0.0
-0.07017598392677116,0.09816161968250509,0.001478702006185294,0.0
-0.07019475939211361,0.09812943317048944,0.0014757515759171935,0.0
-0.0701719606127692,0.09813265182169101,0.001471996482848702,0.0
-0.07009873629793362,0.09813104249609023,0.001457512552441663,0.0
-0.07005903959978099,0.09814606286836419,0.001441955738300769,0.0
-0.07018108012450697,0.09808222628619984,0.0014017225982812164,0.0
-0.07022801878786311,0.09811468101914894,0.0015068652041989809,0.0
-0.07026396039294724,0.0981659112174405,0.0015256406695414388,0.0
-0.07023016455533082,0.09814552642649726,0.0014754833549837298,0.0
-0.07014996649622518,0.09817744471757944,0.001488894401656914,0.0
-0.07016686441503339,0.09815089084516654,0.0014687778316471378,0.0
-0.07020039203171635,0.09807605720473017,0.0015170575996706008,0.0
-0.07024116161360283,0.09816457011277319,0.0015202762508721651,0.0
-0.0702414298345363,0.09816430189183972,0.0015521945419543434,0.0
-0.07026637438134842,0.09812916494955598,0.001535564844079595,0.0
-0.07020441534571831,0.09811816789128397,0.0015138389484690366,0.0
-0.07017169239183574,0.09812031365875168,0.0014588536571089813,0.0
-0.07022935989253043,0.09807525254192978,0.0014671685060463555,0.0
-0.07029587868402942,0.09808222628619984,0.0015701653444964102,0.0
-0.07029856089336406,0.09811468101914894,0.0015240313439406567,0.0
-0.07016793729876725,0.09814847685676537,0.0014862121923222772,0.0
-0.07012529017034652,0.09810797549581235,0.0014867486341892046,0.0
-0.07020924332252065,0.09807793475126442,0.0014711918200483109,0.0
-0.07020602467131909,0.09808866358860296,0.0014513434709719983,0.0
-0.07018563988037585,0.09812433697275363,0.0014550985640404898,0.0
-0.0701749110430373,0.09817529895011173,0.0014660956223125007,0.0
-0.07023713829960088,0.09816242434530548,0.0014086963425512722,0.0
-0.07023365142746585,0.09809215046073799,0.0013767780514690937,0.0
-0.0701416516472878,0.09813157893795715,0.0014218391682909927,0.0
-0.07012931348434848,0.09817985870598062,0.0013982357261461884,0.0
-0.07025269511374177,0.09809268690260492,0.0014036001448154622,0.0
-0.07019073607811166,0.0982088265667947,0.0014151336449544005,0.0
-0.07013145925181619,0.09815571882196888,0.0013440550975865242,0.0
-0.07018027546170658,0.09816161968250509,0.0014148654240209368,0.0
-0.07025484088120948,0.09816135146157162,0.0013950170749446242,0.0
-0.07014191986822127,0.0981549141591685,0.0013588072489270268,0.0
-0.07003999591350507,0.09813908912409414,0.0013896526562753506,0.0
-0.06996194362186713,0.0981777129385129,0.0014084281216178085,0.0
-0.06996596693586908,0.09813587047289257,0.0013875068888076411,0.0
-0.06999815344788472,0.09814579464743073,0.0013770462724025574,0.0
-0.06995657920319785,0.09813747979849335,0.001425862482292948,0.0
-0.06989944814437009,0.09815813281037006,0.001426667145093339,0.0
-0.06991849183064601,0.09809671021660687,0.001390993760942669,0.0
-0.0699946665757497,0.0980698881232605,0.0013512970627900438,0.0
-0.06996033429626634,0.09812567807742095,0.0014178158542890375,0.0
-0.06978357670111378,0.09816215612437201,0.0013928713074769148,0.0
-0.06982434628300026,0.09810851193767928,0.0013242067485102116,0.0
-0.06989596127223506,0.09814043022876145,0.0013955535168115516,0.0
-0.06985277770194741,0.09810931660047967,0.0013861657841403227,0.0
-0.06979537842218618,0.09812272764715285,0.0013912619818761327,0.0
-0.06981281278286132,0.09815920569410391,0.0014025272610816075,0.0
-0.06986001966715093,0.09814498998463034,0.0013601483535943453,0.0
-0.06988228200462841,0.09812621451928788,0.0013419093301188147,0.0
-0.06987825869062646,0.09817020275237592,0.0013172330042401559,0.0
-0.06978867289884959,0.09812648274022134,0.0013555885977254627,0.0
-0.0697790169452449,0.09809054113513721,0.001385897563206859,0.0
-0.06982380984113333,0.0981069026120785,0.001385092900406468,0.0
-0.0697996699571216,0.09812916494955598,0.0013944806330776968,0.0
-0.06982568738766758,0.09815303661263425,0.001412987877486691,0.0
-0.06979403731751886,0.09808571315833486,0.0014231802729583111,0.0
-0.06982300517833294,0.09814579464743073,0.0014331044474964673,0.0
-0.06985680101594936,0.09818978288051877,0.0014306904590952942,0.0
-0.06983963487620769,0.09815250017076732,0.0014304222381618305,0.0
-0.06984902260887892,0.09816617943837397,0.001425057819492557,0.0
-0.06982595560860104,0.09814364887996302,0.001362025900128591,0.0
-0.06972939607255411,0.09811682678661665,0.0013268889578448484,0.0
-0.06974548932856194,0.0981578645894366,0.0014934541575257966,0.0
-0.06985331414381434,0.09815223194983386,0.0014390053080326685,0.0
-0.0697701656544406,0.09818334557811564,0.0014204980636236743,0.0
-0.06972161766548367,0.09817315318264402,0.0014306904590952942,0.0
-0.06972617742135255,0.09814606286836419,0.0013942124121442332,0.0
-0.06974414822389462,0.09815303661263425,0.001412987877486691,0.0
-0.06976989743350713,0.09812245942621939,0.001392603086543451,0.0
-0.06974200245642691,0.0981364069147595,0.001399576830813507,0.0
-0.06970042821174004,0.09816054679877123,0.0013789238189368031,0.0
-0.06970874306067741,0.09814498998463034,0.0013660492141305464,0.0
-0.0697487079797635,0.09820319392719196,0.001383483574805686,0.0
-0.06974763509602964,0.09817449428731134,0.0013821424701383675,0.0
-0.06971062060721166,0.09820185282252464,0.0013708771909328927,0.0
-0.06975380417749931,0.0981519637289004,0.0013279618415787031,0.0
-0.06978169915457953,0.09810743905394542,0.0013488830743888707,0.0
-0.06982166407366562,0.0981659112174405,0.0013354720277156864,0.0
-0.06978733179418227,0.09818575956651682,0.001340031783584569,0.0
-0.06975863215430166,0.09813292004262447,0.0013008715272988711,0.0
-0.06981469032939557,0.09808920003046989,0.0012912155736941782,0.0
-0.06980825302699244,0.09821311810173011,0.0013081134925023905,0.0
-0.06979269621285154,0.09815625526383581,0.0012002886772499893,0.0
-0.06980181572458931,0.09809510089100609,0.0013309122718468038,0.0
-0.0698653840858202,0.0981069026120785,0.0013848246794730043,0.0
-0.06989006041169886,0.09816457011277319,0.0013346673649152953,0.0
-0.06994102238905696,0.09815545060103542,0.0013368131323830048,0.0
-0.06989435194663428,0.09815250017076732,0.0013673903187978649,0.0
-0.06970123287454043,0.0981423077752957,0.0013236703066432842,0.0
-0.06971357103747976,0.09811548568194933,0.0013574661442597084,0.0
-0.06975729104963434,0.09813452936822525,0.001398503947079652,0.0
-0.06975434061936624,0.09817529895011173,0.001390189098142278,0.0
-0.069840975980875,0.09814043022876145,0.0013762416096021663,0.0
-0.06987074850448947,0.09813506581009218,0.0013319851555806585,0.0
-0.06986457942301981,0.09817744471757944,0.0013606847954612726,0.0
-0.06981576321312942,0.098228674915871,0.0014076234588174174,0.0
-0.06980664370139165,0.09821150877612933,0.0013708771909328927,0.0
-0.06993217109825266,0.09816859342677514,0.0013730229584006022,0.0
-0.06990829943517439,0.09819943883412346,0.0014441015057684785,0.0
-0.0698211276317987,0.0981637654499728,0.0013998450517469707,0.0
-0.069840975980875,0.09819595196198844,0.001413792540287082,0.0
-0.06989327906290042,0.09819756128758922,0.0013293029462460215,0.0
-0.0698801362371607,0.09818066336878101,0.0013526381674573622,0.0
-0.06979591486405311,0.0981578645894366,0.001466632064179428,0.0
-0.06977928516617836,0.09817503072917827,0.0014009179354808254,0.0
-0.06983909843434076,0.09814954974049922,0.0014103056681520542,0.0
-0.06985975144621746,0.09815920569410391,0.00139689462147887,0.0
-0.06982434628300026,0.09814418532182995,0.0013507606209231164,0.0
-0.06978840467791612,0.09813184715889062,0.0013663174350640101,0.0
-0.06982461450393372,0.09813211537982408,0.0013609530163947363,0.0
-0.06980074284085545,0.09809456444913917,0.0013534428302577532,0.0
-0.06966555949038976,0.0980639872627243,0.0013293029462460215,0.0
-0.06969238158373613,0.09809161401887107,0.0013343991439818317,0.0
-0.06981817720153059,0.0981238005308867,0.0013338627021149043,0.0
-0.0697192036770825,0.09813184715889062,0.0013673903187978649,0.0
-0.06967146035092596,0.09810180641434268,0.0013762416096021663,0.0
-0.06968621250226646,0.09809268690260492,0.0013802649236041215,0.0
-0.06970981594441127,0.09810958482141313,0.001378119156136412,0.0
-0.06975782749150126,0.0980706927860609,0.0013488830743888707,0.0
-0.06970150109547389,0.09811629034474972,0.0013352038067822227,0.0
-0.06963444586210797,0.09812836028675559,0.0013740958421344569,0.0
-0.06969640489773808,0.09806452370459123,0.0014073552378839537,0.0
-0.06972671386321948,0.09801543927376738,0.001356929702392781,0.0
-0.06964919801344847,0.09807310677446207,0.0013979675052127247,0.0
-0.06960896487342892,0.09808678604206872,0.0013633670047959094,0.0
-0.06962774033877138,0.09806506014645816,0.001287192259692223,0.0
-0.06968165274639758,0.09809617377473995,0.0013770462724025574,0.0
-0.06967655654866177,0.09805862284405503,0.0013652445513301554,0.0
-0.06965509887398467,0.09803850627404526,0.001349419516255798,0.0
-0.06965188022278311,0.09804226136711375,0.0013877751097411048,0.0
-0.06967870231612948,0.0980559406347204,0.0013722182956002111,0.0
-0.06968755360693378,0.0980698881232605,0.001345127981320379,0.0
-0.0696821891882645,0.09809563733287302,0.001333326260247977,0.0
-0.06965831752518624,0.09810663439114503,0.0013199152135747927,0.0
-0.06972295877015099,0.09804977155325073,0.0013311804927802675,0.0
-0.06973958846802573,0.09805567241378693,0.00135612503959239,0.0
-0.06967816587426255,0.0981238005308867,0.0013601483535943453,0.0
-0.06966502304852283,0.09808034873966559,0.0013228656438428932,0.0
-0.06965724464145238,0.09809054113513721,0.0013539792721246806,0.0
-0.06974468466576154,0.09807686186753056,0.0013089181553027815,0.0
-0.06981576321312942,0.09810851193767928,0.0013284982834456305,0.0
-0.0696947955721373,0.09816108324063816,0.0013164283414397648,0.0
-0.06955800289607082,0.09810958482141313,0.0013660492141305464,0.0
-0.06963256831557373,0.09810958482141313,0.0014151336449544005,0.0
-0.06965161200184965,0.09807122922792783,0.0013770462724025574,0.0
-0.06973502871215685,0.09810663439114503,0.0013856293422733954,0.0
-0.06969157692093574,0.09811065770514699,0.0013630987838624457,0.0
-0.06969130870000227,0.09808812714673604,0.0013365449114495411,0.0
-0.06971088882814512,0.09808276272806676,0.001368194981598256,0.0
-0.06967521544399445,0.09811816789128397,0.0013676585397313285,0.0
-0.06968621250226646,0.09809483267007263,0.0013580025861266358,0.0
-0.0697398566889592,0.09810529328647771,0.0013644398885297641,0.0
-0.06974736687509618,0.09810073353060883,0.0013521017255904348,0.0
-0.06970498796760892,0.09810261107714308,0.0013362766905160774,0.0
-0.06973261472375568,0.09810636617021157,0.0013201834345082564,0.0
-0.0697701656544406,0.09807713008846403,0.0013158918995728375,0.0
-0.069811471678194,0.09808973647233682,0.0012861193759583682,0.0
-0.06967011924625864,0.09813747979849335,0.0012756587595532845,0.0
-0.06958804364061875,0.09813908912409414,0.0013022126319661895,0.0
-0.069637932734243,0.09812138654248553,0.0012802185154221673,0.0
-0.06967843409519602,0.09809966064687498,0.0013083817134358542,0.0
-0.06964115138544456,0.09811629034474972,0.0012952388876961334,0.0
-0.06963069076903948,0.09813238360075754,0.0012641252594143462,0.0
-0.06969318624653652,0.09811414457728201,0.001206457758719654,0.0
-0.06970445152574199,0.09808168984433291,0.0013529063883908259,0.0
-0.06959394450115496,0.09806935168139358,0.0013558568186589264,0.0
-0.06955049270993384,0.09816778876397475,0.0013848246794730043,0.0
-0.06965429421118428,0.09820051171785732,0.0013671220978644012,0.0
-0.06969962354893965,0.09812648274022134,0.00135612503959239,0.0
-0.06965080733904926,0.0981098530423466,0.0013445915394534515,0.0
-0.06959984536169116,0.09810529328647771,0.0013177694461070832,0.0
-0.069608428431562,0.09811468101914894,0.0013327898183810496,0.0
-0.06955934400073814,0.09815384127543464,0.001365512772263619,0.0
-0.0695596122216716,0.09815384127543464,0.001327157178778312,0.0
-0.0695596122216716,0.09815089084516654,0.0013172330042401559,0.0
-0.06958241100101602,0.09812487341462056,0.001323938527576748,0.0
-0.06963015432717255,0.09806532836739162,0.0013419093301188147,0.0
-0.06962961788530563,0.09810878015861274,0.0013437868766530605,0.0
-0.06962264414103557,0.0981511590661,0.0013633670047959094,0.0
-0.06963766451330954,0.09811468101914894,0.0013448597603869152,0.0
-0.06972483631668523,0.09809322334447185,0.0013231338647763569,0.0
-0.06977874872431143,0.0980492351113838,0.0013293029462460215,0.0
-0.0697280549678868,0.09814016200782799,0.0013783873770698758,0.0
-0.0697605097008359,0.09813238360075754,0.0013609530163947363,0.0
-0.06981629965499635,0.09810475684461079,0.0013660492141305464,0.0
-0.06976587411950518,0.09810636617021157,0.0013547839349250716,0.0
-0.06974039313082613,0.0981098530423466,0.0013244749694436753,0.0
-0.06975273129376545,0.09817315318264402,0.0013566614814593174,0.0
-0.06979564664311964,0.09813506581009218,0.0013475419697215522,0.0
-0.06984875438794545,0.0981549141591685,0.0012912155736941782,0.0
-0.06977150675910791,0.09818012692691408,0.0012979210970307706,0.0
-0.06968862649066764,0.09814177133342877,0.0014140607612205458,0.0
-0.06980020639898853,0.09809402800727224,0.001385092900406468,0.0
-0.06984446285301003,0.09808759070486911,0.0014186205170894286,0.0
-0.06981227634099439,0.09813265182169101,0.0014384688661657412,0.0
-0.0697672152241725,0.09812219120528592,0.0014124514356197637,0.0
-0.06980422971299048,0.09814659931023112,0.001410573889085518,0.0
-0.06984526751581042,0.09812943317048944,0.0013775827142694847,0.0
-0.06981925008526445,0.09812943317048944,0.0013529063883908259,0.0
-0.06987289427195718,0.09813131071702369,0.001441151075500378,0.0
-0.06975326773563238,0.09816161968250509,0.0014473201569700426,0.0
-0.06962291236196903,0.09813506581009218,0.0014194251798898196,0.0
-0.0697731160847087,0.09810422040274386,0.0014025272610816075,0.0
-0.06974656221229579,0.0980706927860609,0.001426667145093339,0.0
-0.0697457575494954,0.09812299586808632,0.0014213027264240654,0.0
-0.06980825302699244,0.09816430189183972,0.0014022590401481438,0.0
-0.06971893545614903,0.09818978288051877,0.001377314493336021,0.0
-0.06969372268840344,0.09815518238010196,0.001362025900128591,0.0
-0.06971437570028015,0.09813694335662643,0.0013440550975865242,0.0
-0.06974843975883004,0.09812406875182017,0.0013942124121442332,0.0
-0.06984821794607853,0.09809697843754034,0.001362830562928982,0.0
-0.06981683609686327,0.09809885598407458,0.0013386906789172506,0.0
-0.06971518036308054,0.0981785176013133,0.0013419093301188147,0.0
-0.06976077792176937,0.09817395784544442,0.0013102592599701,0.0
-0.06974897620069696,0.09815437771730157,0.001257419736077754,0.0
-0.06974763509602964,0.0981755671710452,0.0013606847954612726,0.0
-0.06976587411950518,0.0981119988098143,0.001296848213296916,0.0
-0.0697752618521764,0.09808490849553447,0.0013038219575669716,0.0
-0.06982729671326836,0.098121654763419,0.0013164283414397648,0.0
-0.06978277203831339,0.09812809206582213,0.0013030172947665806,0.0
-0.06971974011894942,0.09805379486725269,0.0012587608407450723,0.0
-0.06970820661881048,0.09810153819340922,0.0013150872367724464,0.0
-0.06969506379307076,0.09814633108929766,0.0013150872367724464,0.0
-0.0697221541073506,0.09805647707658732,0.0012855829340914409,0.0
-0.06968996759533495,0.09807793475126442,0.0012952388876961334,0.0
-0.06966073151358741,0.09813318826355794,0.0013338627021149043,0.0
-0.0696733378974602,0.09810636617021157,0.0013185741089074743,0.0
-0.06959957714075769,0.0981570599266362,0.0012877287015591503,0.0
-0.06952608460498864,0.09813372470542486,0.0013164283414397648,0.0
-0.06947753661603172,0.09818066336878101,0.001340031783584569,0.0
-0.06952662104685557,0.09813023783328984,0.0013250114113106026,0.0
-0.06952447527938786,0.098169666310509,0.001303553736633508,0.0
-0.06947700017416479,0.09817422606637788,0.0012563468523438992,0.0
-0.06947941416256596,0.09815518238010196,0.001346737306921161,0.0
-0.06951723331418434,0.09813104249609023,0.0013279618415787031,0.0
-0.06953922743072836,0.09816322900810587,0.001305967725034681,0.0
-0.0695145511048497,0.09814659931023112,0.001293897783028815,0.0
-0.06942684285960708,0.09814633108929766,0.0012952388876961334,0.0
-0.06943086617360904,0.09817529895011173,0.00130006686449848,0.0
-0.06945339673201999,0.09815330483356771,0.0012963117714299885,0.0
-0.06943488948761099,0.09816322900810587,0.001262515933813564,0.0
-0.06943623059227831,0.09818361379904911,0.0013073088297019995,0.0
-0.06949792140697496,0.09817583539197866,0.0012882651434260777,0.0
-0.06948343747656792,0.09823859909040916,0.0012641252594143462,0.0
-0.0694555424994877,0.0982109723342624,0.0012238921193947934,0.0
-0.06943810813881256,0.09819407441545419,0.0013663174350640101,0.0
-0.069608428431562,0.09818334557811564,0.001365512772263619,0.0
-0.06961781616423322,0.09812621451928788,0.001324743190377139,0.0
-0.0694547378366873,0.0981069026120785,0.001306772387835072,0.0
-0.06942550175493976,0.09823403933454028,0.0013301076090464126,0.0
-0.06947646373229786,0.0981785176013133,0.0013338627021149043,0.0
-0.06953788632606105,0.09815813281037006,0.0013134779111716643,0.0
-0.06952474350032133,0.09819809772945615,0.001282096061956413,0.0
-0.06948048704629982,0.09822921135773793,0.0013279618415787031,0.0
-0.06948772901150334,0.09819139220611955,0.0014322997846960763,0.0
-0.06957919234981445,0.09819648840385536,0.0013872386678741775,0.0
-0.06965536709491814,0.09818280913624872,0.0013767780514690937,0.0
-0.06953091258179099,0.09815384127543464,0.0013588072489270268,0.0
-0.0694791459416325,0.09819192864798648,0.0013421775510522784,0.0
-0.06952313417472054,0.0981549141591685,0.0013276936206452394,0.0
-0.06948585146496909,0.09816778876397475,0.0013191105507744016,0.0
-0.06945500605762077,0.09821419098546397,0.0013054312831677537,0.0
-0.06946895354616088,0.09819970705505693,0.0012971164342303796,0.0
-0.06956739062874205,0.09814150311249531,0.0012399853754026145,0.0
-0.06954941982619998,0.09820131638065771,0.0012281836543302125,0.0
-0.06942416065027245,0.09818575956651682,0.0013099910390366363,0.0
-0.06946466201122546,0.09820319392719196,0.001323938527576748,0.0
-0.06951696509325088,0.09817637183384559,0.0013314487137137312,0.0
-0.06955049270993384,0.09814901329863229,0.0013091863762362452,0.0
-0.06954459184939764,0.09819058754331916,0.0012882651434260777,0.0
-0.06949336165110608,0.09817529895011173,0.0012504459918076982,0.0
-0.06956014866353853,0.0981600103569043,0.0012399853754026145,0.0
-0.06957624191954635,0.09819782950852268,0.001252323538341944,0.0
-0.06950409048844462,0.09818549134558335,0.0012193323635259108,0.0
-0.06942416065027245,0.09814633108929766,0.0012281836543302125,0.0
-0.06944454544121569,0.09810958482141313,0.001197070026048425,0.0
-0.06947297686016284,0.09822196939253441,0.0012128950611227825,0.0
-0.06948048704629982,0.09823779442760877,0.0012059213168527266,0.0
-0.06949577563950725,0.09821740963666553,0.001242935805670715,0.0
-0.0694555424994877,0.09817985870598062,0.0012246967821951844,0.0
-0.06947083109269513,0.09815571882196888,0.0011670292815004922,0.0
-0.0694850468021687,0.09817905404318022,0.0011581779906961905,0.0
-0.06937185756824703,0.09824959614868117,0.0013172330042401559,0.0
-0.06938204996371865,0.09823967197414302,0.0012630523756804915,0.0
-0.06943569415041138,0.09820775368306084,0.001231938747398704,0.0
-0.06948692434870295,0.09821660497386514,0.0012255014449955755,0.0
-0.06944561832494954,0.09821740963666553,0.0012198688053928382,0.0
-0.06940645806866384,0.09820829012492777,0.0011887551771110508,0.0
-0.0694437407784153,0.09818549134558335,0.0011471809324241796,0.0
-0.06943542592947792,0.09818200447344833,0.0012480320034065251,0.0
-0.0693410121608987,0.09814901329863229,0.0012381078288683687,0.0
-0.06928924552074021,0.09812916494955598,0.001215845491390883,0.0
-0.06940592162679692,0.09823430755547374,0.0012287200961971399,0.0
-0.06950248116284384,0.09819246508985341,0.0012212099100601566,0.0
-0.0693595194053077,0.09816430189183972,0.0012155772704574193,0.0
-0.06941584580133507,0.09822894313680447,0.0012244285612617208,0.0
-0.06945634716228809,0.09820748546212738,0.0012220145728605476,0.0
-0.06941906445253664,0.09816725232210782,0.001194656037647252,0.0
-0.0693986796615934,0.09816027857783777,0.0011906327236452965,0.0
-0.06943220727827636,0.09815169550796693,0.0012061895377861902,0.0
-0.06951052779084775,0.09815598704290235,0.0011737348048370842,0.0
-0.06954754227966574,0.09818227269438179,0.0012761952014202118,0.0
-0.0694576882669554,0.09820936300866162,0.0012024344447176987,0.0
-0.06936354271930965,0.0982530830208162,0.0012153090495239556,0.0
-0.0693321608700944,0.09820963122959508,0.0012547375267431171,0.0
-0.06939841144065993,0.09819380619452073,0.0012212099100601566,0.0
-0.0694311343945425,0.09819246508985341,0.001218259479792056,0.0
-0.06939251058012373,0.09819595196198844,0.0012104810727216093,0.0
-0.0693898283707891,0.09813292004262447,0.0012287200961971399,0.0
-0.0694008254290611,0.09814767219396497,0.0011911691655122239,0.0
-0.06941665046413546,0.09810529328647771,0.0011090935598723364,0.0
-0.0694045805221296,0.09813747979849335,0.0011648835140327827,0.0
-0.0694437407784153,0.09813077427515676,0.0011514724673595985,0.0
-0.06937185756824703,0.09816108324063816,0.001169711490835129,0.0
-0.06935093633543686,0.09812433697275363,0.0011503995836257437,0.0
-0.06932760111422552,0.09807176566979475,0.0011147261994750737,0.0
-0.06931982270715507,0.09817878582224676,0.0011487902580249617,0.0
-0.0693262600095582,0.09814713575209805,0.0011833907584417771,0.0
-0.06933537952129597,0.09810636617021157,0.0011487902580249617,0.0
-0.06935254566103764,0.0980942962282057,0.0011455716068233975,0.0
-0.06935388676570496,0.0981275556239552,0.0011699797117685927,0.0
-0.06938768260332139,0.09810797549581235,0.0011133850948077553,0.0
-0.06932438246302396,0.09809885598407458,0.0010237993030308846,0.0
-0.06927663913686742,0.09813318826355794,0.0011149944204085374,0.0
-0.06933752528876368,0.09811441279821548,0.0012635888175474188,0.0
-0.06940243475466189,0.09805835462312157,0.0011833907584417771,0.0
-0.06944615476681647,0.0980647919255247,0.0011436940602891517,0.0
-0.06934369437023334,0.09813426114729179,0.0011267961414809396,0.0
-0.06937373511478127,0.09811360813541509,0.001099974048134571,0.0
-0.06937588088224898,0.09812621451928788,0.0011198223972108837,0.0
-0.06934423081210027,0.09811226703074777,0.00115013136269228,0.0
-0.06934744946330183,0.0980669376929924,0.0011270643624144033,0.0
-0.06932947866075977,0.098121654763419,0.001139134304420269,0.0
-0.06934074393996524,0.09812111832155207,0.0011321605601502132,0.0
-0.06934369437023334,0.09810851193767928,0.001154422897627699,0.0
-0.06933832995156407,0.09809483267007263,0.0011461080486903248,0.0
-0.06931097141635077,0.0981275556239552,0.0011235774902793752,0.0
-0.06928253999740362,0.09810502506554425,0.0011718572583028384,0.0
-0.0693144582884858,0.09810529328647771,0.0011329652229506043,0.0
-0.06936622492864429,0.09806050039058928,0.0011262596996140122,0.0
-0.06935978762624116,0.09808142162339945,0.0011423529556218333,0.0
-0.06925571790405725,0.09807605720473017,0.001090586315463342,0.0
-0.06920421948483223,0.09808946825140336,0.0011302830136159675,0.0
-0.06926000943899267,0.09809215046073799,0.00117051615363552,0.0
-0.06926081410179306,0.09809054113513721,0.001064300663983901,0.0
-0.0692487441597872,0.09805567241378693,0.0010750295013224483,0.0
-0.06927395692753278,0.09801731682030163,0.0011174084088097105,0.0
-0.06930721632328228,0.09805862284405503,0.0010964871759995432,0.0
-0.06930077902087915,0.09808222628619984,0.0010887087689290963,0.0
-0.06923962464804943,0.0980795440768652,0.0011160673041423921,0.0
-0.06921119322910228,0.0980980513212742,0.001121163501878202,0.0
-0.06922675004324318,0.09811065770514699,0.0011005104900014984,0.0
-0.06926000943899267,0.09807578898379671,0.0011056066877373084,0.0
-0.06931821338155429,0.09806666947205894,0.0011182130716101016,0.0
-0.06926832428793005,0.09808732248393565,0.0011361838741521684,0.0
-0.06918732156602402,0.09803689694844447,0.0011259914786805486,0.0
-0.06931419006755234,0.09804306602991414,0.0011300147926825038,0.0
-0.06927422514846625,0.09806023216965581,0.0010798574781247948,0.0
-0.06930399767208072,0.09812648274022134,0.0011157990832089285,0.0
-0.06938956014985563,0.0980824945071333,0.0012271107705963576,0.0
-0.06930292478834686,0.09810770727487889,0.0011367203160190958,0.0
-0.06917444696121776,0.09809966064687498,0.0011198223972108837,0.0
-0.06924633017138603,0.09804092026244643,0.0011367203160190958,0.0
-0.06930453411394764,0.09805620885565386,0.0011267961414809396,0.0
-0.06922192206644083,0.09806666947205894,0.0010997058272011074,0.0
-0.06913984646080094,0.09804360247178107,0.0011222363856120568,0.0
-0.06909827221611407,0.0980470893439161,0.001134038106684459,0.0
-0.06911704768145653,0.09802911854137403,0.0010691286407862473,0.0
-0.06915701260054262,0.09802589989017246,0.0011133850948077553,0.0
-0.06918651690322362,0.09801275706443274,0.0010578633615807725,0.0
-0.06916130413547804,0.09800605154109615,0.001083076129326359,0.0
-0.06915701260054262,0.09802134013430358,0.0010986329434672527,0.0
-0.06918866267069133,0.09801651215750123,0.0010374785706375326,0.0
-0.06916479100761307,0.09797949766868325,0.0011010469318684258,0.0
-0.06916774143788117,0.09800658798296308,0.0010597409081150183,0.0
-0.06918329825202206,0.09802616811110593,0.0010879041061287052,0.0
-0.06922058096177351,0.0980315325297752,0.001084685454927141,0.0
-0.06920877924070111,0.09803180075070866,0.001052498942911499,0.0
-0.06915808548427647,0.09800900197136425,0.0010264815123655216,0.0
-0.0691859804613567,0.09802938676230749,0.001020044209962393,0.0
-0.06930802098608267,0.09800766086669693,0.0010310412682344042,0.0
-0.0692154847640377,0.0979894218432214,0.0010586680243811636,0.0
-0.06914440621666983,0.09808410383273408,0.0010307730473009405,0.0
-0.0691253625303939,0.09812245942621939,0.00103291881476865,0.0
-0.06924954882258759,0.09812728740302173,0.001010656477291164,0.0
-0.06923211446191245,0.09804601646018224,9.832979420778684E-4,0.0
-0.06913770069333323,0.09799424982002375,0.0010506213963772531,0.0
-0.06910122264638217,0.0981519637289004,0.0010500849545103258,0.0
-0.06909371246024519,0.09814901329863229,0.001033723477569041,0.0
-0.06905508864582642,0.0981541094963681,0.0010372103497040689,0.0
-0.06903792250608475,0.09810824371674581,0.0010146797912931192,0.0
-0.0690124415174057,0.09806854701859319,0.0010101200354242367,0.0
-0.06902504790127849,0.09805728173938771,9.881259188802146E-4,0.0
-0.06898696052872665,0.09804252958804721,9.591580580661366E-4,0.0
-0.06908191073917279,0.09808142162339945,0.0010640324430504374,0.0
-0.06904865134342329,0.09807605720473017,0.0010629595593165827,0.0
-0.06908003319263854,0.09808168984433291,0.0010211170936962478,0.0
-0.0691350184839986,0.09808517671646794,0.0010605455709154095,0.0
-0.06907654632050352,0.09807793475126442,0.00104820740797608,0.0
-0.06904006827355245,0.09804092026244643,0.0010141433494261919,0.0
-0.06904087293635285,0.0980100748550981,0.0010366739078371415,0.0
-0.06905589330862681,0.09804869866951688,0.0011021198156022805,0.0
-0.06920207371736452,0.09803850627404526,0.0010503531754437895,0.0
-0.06906662214596536,0.09809671021660687,0.0010436476521071974,0.0
-0.068954774016711,0.0980824945071333,0.0010747612803889846,0.0
-0.06891936885349378,0.09804306602991414,0.0011088253389388728,0.0
-0.06896094309818067,0.09808866358860296,0.0010836125711932863,0.0
-0.06897006260991843,0.09810958482141313,0.0010777117106570853,0.0
-0.06897220837738614,0.09805111265791805,0.0010873676642617779,0.0
-0.0690183423779419,0.09803287363444252,0.0010455251986414432,0.0
-0.06905991662262877,0.09812782384488866,0.0010959507341326159,0.0
-0.0690006397963333,0.09810422040274386,0.0011525453510934532,0.0
-0.0689880334124605,0.09808008051873213,0.0011471809324241796,0.0
-0.06905991662262877,0.0980706927860609,0.0011026562574692079,0.0
-0.06908298362290664,0.09806506014645816,9.647906976688739E-4,0.0
-0.06905160177369139,0.09816564299650704,0.0011335016648175316,0.0
-0.06907654632050352,0.09812996961235637,0.0011863411887098776,0.0
-0.06907708276237044,0.09811763144941704,0.0010007323027530078,0.0
-0.0689939342729967,0.09810556150741118,0.0011345745485513863,0.0
-0.06908620227410821,0.09811897255408436,0.001033723477569041,0.0
-0.0690145872848734,0.09815518238010196,9.626449302011645E-4,0.0
-0.0690566979714272,0.09810448862367732,0.0011643470721658554,0.0
-0.06904435980848787,0.09808651782113526,0.0011538864557607716,0.0
-0.06901968348260921,0.0981637654499728,0.0011383296416198779,0.0
-0.06901056397087145,0.09813801624036028,0.0010798574781247948,0.0
-0.06902960765714737,0.09814713575209805,0.0010870994433283142,0.0
-0.06901887881980882,0.09812728740302173,0.0011702479327020563,0.0
-0.06893760787696931,0.09814928151956576,0.00113484276948485,0.0
-0.06913984646080094,0.09812996961235637,0.0011112393273400459,0.0
-0.06910980571625301,0.09814177133342877,0.0010806621409251858,0.0
-0.06890086160908479,0.09814847685676537,0.0011498631417588164,0.0
-0.06897006260991843,0.09815893747317045,0.0011742712467040116,0.0
-0.06898535120312586,0.09814767219396497,0.001150936025492671,0.0
-0.06915674437960916,0.09817449428731134,0.0011994840144495982,0.0
-0.06926859250886351,0.09811226703074777,0.0011788310025728946,0.0
-0.06926108232272653,0.09803314185537598,0.0011906327236452965,0.0
-0.06887216196920418,0.09807310677446207,0.0011812449909740677,0.0
-0.06861118300094401,0.0981452582055638,0.0011815132119075314,0.0
-0.06874824389794396,0.09811816789128397,0.0011833907584417771,0.0
-0.06878123507275999,0.09813077427515676,0.0011874140724437324,0.0
-0.06883782968972083,0.09807042456512743,0.0011603237581639001,0.0
-0.06882227287557993,0.09803984737871257,0.0011412800718879784,0.0
-0.06880430207303787,0.09811548568194933,0.0011343063276179227,0.0
-0.06880269274743708,0.09815035440329961,0.001083076129326359,0.0
-0.0688608966899987,0.09810743905394542,0.0010288955007666948,0.0
-0.06876728758421988,0.09812675096115481,0.0011474491533576432,0.0
-0.06874690279327664,0.09812111832155207,0.0011994840144495982,0.0
-0.0688246868639811,0.09810931660047967,0.0011742712467040116,0.0
-0.06881771311971105,0.09815598704290235,0.001154422897627699,0.0
-0.06876701936328641,0.0981060979492781,0.0011082888970719454,0.0
-0.06875468120034708,0.09813211537982408,0.001159519095363509,0.0
-0.0688069842823725,0.09813211537982408,0.0011469127114907159,0.0
-0.06874529346767586,0.09811629034474972,0.0011251868158801575,0.0
-0.06871364339752714,0.09812487341462056,0.0011157990832089285,0.0
-0.06876219138648407,0.0981275556239552,0.0011383296416198779,0.0
-0.06884212122465624,0.09806023216965581,0.0011563004441619447,0.0
-0.06879357323569932,0.0981098530423466,0.0011351109904183137,0.0
-0.06877908930529228,0.09813721157755989,0.0011512042464261348,0.0
-0.06888476835307697,0.09812004543781822,0.0011276008042813306,0.0
-0.06874314770020815,0.09807605720473017,0.00109916938533418,0.0
-0.06870023235085396,0.09810663439114503,0.001203775549385017,0.0
-0.06860581858227474,0.09814552642649726,0.0011933149329799336,0.0
-0.0685921393146681,0.09814552642649726,0.0011163355250758558,0.0
-0.06868762596698116,0.09812487341462056,0.0011911691655122239,0.0
-0.06868118866457804,0.09812889672862252,0.001217454816991665,0.0
-0.06864953859442932,0.09815571882196888,0.001223355677527866,0.0
-0.0686511479200301,0.09813131071702369,0.0012268425496628939,0.0
-0.06871444806032753,0.09811897255408436,0.0011804403281736766,0.0
-0.06866268142016904,0.09813587047289257,0.001193851374846861,0.0
-0.06862673981508491,0.09812675096115481,0.0011906327236452965,0.0
-0.06860072238453893,0.09810126997247576,0.001159519095363509,0.0
-0.06855432016304971,0.09805352664631922,0.0011436940602891517,0.0
-0.06855190617464854,0.09805647707658732,0.0011482538161580343,0.0
-0.0686068914660086,0.09810126997247576,0.0011404754090875873,0.0
-0.06869942768805357,0.09814418532182995,0.0011369885369525595,0.0
-0.06857899648892837,0.09811065770514699,0.0011412800718879784,0.0
-0.06853876334890882,0.09808329916993369,0.0011021198156022805,0.0
-0.06862700803601837,0.09811333991448162,0.001076102385056303,0.0
-0.0685891888844,0.09809751487940727,0.001180172107240213,0.0
-0.06853018027903798,0.09808785892580257,0.0011589826534965817,0.0
-0.0686490021525624,0.09809188223980453,0.0011133850948077553,0.0
-0.06874878033981088,0.09801570749470084,0.0010696650826531747,0.0
-0.068792232131032,0.09808061696059905,0.001140743630021051,0.0
-0.06873402818847038,0.0980854449374014,0.0011302830136159675,0.0
-0.06873858794433926,0.09810448862367732,0.0010683239779858563,0.0
-0.06862378938481681,0.09808088518153252,0.0010940731875983699,0.0
-0.06869755014151932,0.09806666947205894,0.0010964871759995432,0.0
-0.06873992904900658,0.09805728173938771,0.0010938049666649062,0.0
-0.06874878033981088,0.09811950899595129,0.0010739566175885936,0.0
-0.0687501214444782,0.09816027857783777,0.001091390978263733,0.0
-0.06883112416638423,0.09811146236794738,0.0010538400475788173,0.0
-0.06881610379411027,0.09811736322848358,0.001049012070776471,0.0
-0.06878284439836077,0.09807739830939749,0.0010254086286316667,0.0
-0.06877238378195569,0.09807176566979475,0.0010527671638449626,0.0
-0.06887296663200457,0.09809322334447185,0.0010154844540935103,0.0
-0.06877318844475608,0.09814767219396497,0.0010699333035866384,0.0
-0.06869433149031776,0.09814043022876145,0.0011326970020171406,0.0
-0.06878230795649384,0.09813774801942682,0.0010951460713322248,0.0
-0.06882119999184608,0.0981549141591685,0.001064300663983901,0.0
-0.06873268708380306,0.09810717083301196,0.00111955417627742,0.0
-0.06877801642155842,0.09815035440329961,0.0011490584789584253,0.0
-0.06886062846906524,0.0981364069147595,0.0011101664436061912,0.0
-0.06898132788912391,0.09809617377473995,0.0010637642221169737,0.0
-0.06877184734008876,0.09814874507769883,0.0010932685247979788,0.0
-0.068725713339533,0.09815545060103542,0.0011045338040034536,0.0
-0.0688246868639811,0.09812836028675559,0.0010860265595944594,0.0
-0.06889683829508284,0.09807471610006285,0.0010602773499819459,0.0
-0.06889496074854859,0.09815008618236615,0.0011005104900014984,0.0
-0.06885419116666211,0.0981208501006186,0.0010862947805279231,0.0
-0.06888101326000848,0.09806318259992391,0.0010651053267842921,0.0
-0.06888637767867775,0.0981128034726147,0.0010052920586218904,0.0
-0.0687774799796915,0.0981570599266362,0.0010128022447588735,0.0
-0.0687619231655506,0.09812004543781822,0.0010734201757216662,0.0
-0.06881047115450753,0.09809697843754034,0.0011026562574692079,0.0
-0.06885258184106133,0.09813587047289257,0.001084685454927141,0.0
-0.06885338650386172,0.09810663439114503,0.0010516942801111079,0.0
-0.06893143879549965,0.09808276272806676,0.0010020734074203262,0.0
-0.06894136297003782,0.09809268690260492,0.0010669828733185379,0.0
-0.06876219138648407,0.09817073919424285,0.0011316241182832859,0.0
-0.06879974231716898,0.09809349156540531,0.0010844172339936774,0.0
-0.0687353692931377,0.09814847685676537,0.0010750295013224483,0.0
-0.06877640709595764,0.09816430189183972,0.0010629595593165827,0.0
-0.06881208048010831,0.09813882090316067,0.0010873676642617779,0.0
-0.06878847703796351,0.09812245942621939,0.0010750295013224483,0.0
-0.0687471710142101,0.09816752054304129,0.0010704697454535657,0.0
-0.06873858794433926,0.09814364887996302,0.00107368839665513,0.0
-0.06877479777035686,0.09808061696059905,9.88662360747142E-4,0.0
-0.06894055830723743,0.09810824371674581,0.0011026562574692079,0.0
-0.0688010834218363,0.09815062262423307,0.0011600555372304365,0.0
-0.0687139116184606,0.0981785176013133,0.0010954142922656885,0.0
-0.06878364906116116,0.09813479758915872,0.0010774434897236217,0.0
-0.06882388220118071,0.09814177133342877,0.0010825396874594316,0.0
-0.06874395236300854,0.09811468101914894,0.0011125804320073643,0.0
-0.06874287947927468,0.09810824371674581,0.0011581779906961905,0.0
-0.06880591139863865,0.09809590555380648,0.0011487902580249617,0.0
-0.06882656441051535,0.09813694335662643,0.001127332583347867,0.0
-0.06877292022382261,0.09816644765930743,0.0011603237581639001,0.0
-0.0687796257471592,0.0981629607871724,0.001118749513477029,0.0
-0.068762727828351,0.09816993453144246,0.0011241139321463026,0.0
-0.06881181225917485,0.09813882090316067,0.001187682293377196,0.0
-0.0688646517830672,0.09814633108929766,0.0012104810727216093,0.0
-0.06881208048010831,0.09817073919424285,0.0011525453510934532,0.0
-0.0687804304099596,0.09812058187968514,0.0011259914786805486,0.0
-0.06883461103851926,0.0981637654499728,0.0011984111307157435,0.0
-0.06878767237516312,0.09817368962451095,0.0011678339443008832,0.0
-0.06873751506060541,0.0981578645894366,0.0011061431296042357,0.0
-0.06876889690982066,0.09820265748532503,0.0012112857355220004,0.0
-0.06885392294572865,0.09813882090316067,0.0011259914786805486,0.0
-0.06883756146878736,0.09815920569410391,0.0010964871759995432,0.0
-0.06881449446850949,0.09825281479988274,0.0011257232577470849,0.0
-0.0688254915267815,0.09818254091531525,0.00108388079212675,0.0
-0.06886894331800261,0.09812487341462056,0.0010731519547882025,0.0
-0.06888423191121004,0.09819863417132307,0.0010820032455925042,0.0
-0.06894270407470514,0.09822170117160095,0.001077979931590549,0.0
-0.06878659949142926,0.09818575956651682,0.00101763022156122,0.0
-0.06880188808463669,0.09812353230995324,0.0010205806518293204,0.0
-0.06886357889933334,0.09814391710089648,0.0010959507341326159,0.0
-0.06876219138648407,0.09814713575209805,0.0010511578382441805,0.0
-0.06873429640940384,0.09814552642649726,0.0010487438498430074,0.0
-0.06881985888717876,0.09818575956651682,0.0010605455709154095,0.0
-0.06885928736439792,0.09814338065902956,0.0010538400475788173,0.0
-0.0688520453991944,0.09814847685676537,0.0010600091290484822,0.0
-0.06889657007414937,0.09816939808957553,0.001008242488889991,0.0
-0.06893385278390082,0.09817234851984363,0.0010015369655533989,0.0
-0.06894860493524134,0.09814150311249531,0.0010503531754437895,0.0
-0.06889388786481473,0.09815089084516654,9.993911980856892E-4,0.0
-0.06892178284189496,0.09812326408901978,9.317995228528409E-4,0.0
-0.06898079144725698,0.0981629607871724,0.0010425747683733425,0.0
-0.06901726949420804,0.0981511590661,0.0010313094891678679,0.0
-0.0690086864243372,0.09813023783328984,9.96172546884125E-4,0.0
-0.06897113549365229,0.0981275556239552,9.873212560798236E-4,0.0
-0.06898696052872665,0.09814096667062838,9.977818724849071E-4,0.0
-0.0690419458200867,0.09811655856568319,9.70691558205075E-4,0.0
-0.06908727515784206,0.098121654763419,9.999276399526168E-4,0.0
-0.06904462802942134,0.09812836028675559,9.93758558482952E-4,0.0
-0.06904301870382056,0.0981334564844914,9.516478719291535E-4,0.0
-0.0690929077974448,0.0981090483795462,9.658635814027288E-4,0.0
-0.06913260449559742,0.09813292004262447,0.0010229946402304936,0.0
-0.06898669230779318,0.09812648274022134,9.838343839447957E-4,0.0
-0.06897945034258966,0.0981187043331509,9.773970815416672E-4,0.0
-0.06911034215811994,0.09811038948421352,9.564758487314997E-4,0.0
-0.06909693111144675,0.09810341573994347,9.650589186023376E-4,0.0
-0.06905160177369139,0.09813747979849335,9.819568374105497E-4,0.0
-0.06906742680876575,0.09815759636850313,9.752513140739577E-4,0.0
-0.06917096008908273,0.09808705426300218,8.988083480368076E-4,0.0
-0.06922943225257781,0.09809483267007263,0.0010605455709154095,0.0
-0.06901431906393994,0.09809885598407458,0.0010672510942520016,0.0
-0.06893090235363272,0.09815545060103542,0.0010471345242422253,0.0
-0.0690604530644957,0.0981039521818104,0.0010616184546492643,0.0
-0.06914467443760329,0.09807471610006285,0.0010356010241032868,0.0
-0.06917766561241932,0.09808893180953643,0.0010221899774301025,0.0
-0.06919375886842714,0.0980677423557928,9.682775698039019E-4,0.0
-0.06917739739148586,0.09810663439114503,9.865165932794325E-4,0.0
-0.06914226044920212,0.09811602212381626,9.96172546884125E-4,0.0
-0.06915942658894379,0.09813426114729179,9.94563221283343E-4,0.0
-0.06913045872812972,0.09809483267007263,0.0010015369655533989,0.0
-0.06921092500816882,0.09810556150741118,0.0010125340238254098,0.0
-0.06930399767208072,0.09803957915777911,9.779335234085945E-4,0.0
-0.06930346123021379,0.09810824371674581,9.540618603303266E-4,0.0
-0.06931633583502005,0.09815089084516654,9.926856747490972E-4,0.0
-0.0693410121608987,0.09808383561180062,9.790064071424492E-4,0.0
-0.06924686661325295,0.09805862284405503,9.422601392579245E-4,0.0
-0.06923345556657977,0.09811360813541509,9.478927788606618E-4,0.0
-0.06925518146219033,0.09812996961235637,9.194613599135112E-4,0.0
-0.06933350197476172,0.09809939242594151,9.00954115504517E-4,0.0
-0.06931633583502005,0.09809966064687498,8.859337432305507E-4,0.0
-0.06928522220673826,0.09808946825140336,9.658635814027288E-4,0.0
-0.06926778784606312,0.09810743905394542,9.723008838058571E-4,0.0
-0.06930587521861496,0.09811682678661665,9.543300812637903E-4,0.0
-0.06924606195045256,0.0980639872627243,9.457470113929524E-4,0.0
-0.06924150219458368,0.09806371904179084,9.336770693870866E-4,0.0
-0.06925544968312379,0.09807257033259514,9.602309417999914E-4,0.0
-0.0692457937295191,0.09812272764715285,0.0010018051864868626,0.0
-0.06924016108991636,0.09809617377473995,9.583533952657456E-4,0.0
-0.0691527210656072,0.0980639872627243,9.618402674007734E-4,0.0
-0.06916103591454457,0.09808598137926833,9.798110699428403E-4,0.0
-0.0691800796008205,0.09813292004262447,9.548665231307176E-4,0.0
-0.06925410857845647,0.0980492351113838,9.583533952657456E-4,0.0
-0.06920314660109837,0.09806559658832509,9.80079290876304E-4,0.0
-0.0691881262288244,0.09812728740302173,9.59694499933064E-4,0.0
-0.06911758412332346,0.09810046530967537,9.819568374105497E-4,0.0
-0.06918356647295552,0.09809402800727224,0.0010063649423557451,0.0
-0.06932009092808854,0.09806264615805699,0.0010275543960993764,0.0
-0.06920716991510033,0.09809349156540531,0.00101763022156122,0.0
-0.069002785563801,0.09804387069271453,9.339452903205503E-4,0.0
-0.06898347365659162,0.09806237793712352,9.88662360747142E-4,0.0
-0.06906233061102994,0.09810287929807654,0.001026213291432058,0.0
-0.06907788742517083,0.09810556150741118,9.755195350074214E-4,0.0
-0.06899420249393017,0.09808303094900023,9.460152323264161E-4,0.0
-0.06893653499323546,0.0980618414952566,9.320677437863045E-4,0.0
-0.06896818506338419,0.09805245376258537,8.85665522297087E-4,0.0
-0.06893760787696931,0.09803206897164213,9.90271686347924E-4,0.0
-0.06887001620173647,0.09803770161124487,0.0010001958608860805,0.0
-0.06887216196920418,0.09800658798296308,9.771288606082035E-4,0.0
-0.0689295612489654,0.09800471043642883,9.395779299232876E-4,0.0
-0.06890381203935289,0.0980108795178985,9.403825927236788E-4,0.0
-0.06889093743454663,0.0980403838205795,9.744466512735667E-4,0.0
-0.06887296663200457,0.09804977155325073,9.811521746101587E-4,0.0
-0.06886894331800261,0.09802241301803744,0.0010007323027530078,0.0
-0.06888932810894585,0.09800471043642883,9.283126507178129E-4,0.0
-0.06884292588745664,0.0979717192616128,9.59694499933064E-4,0.0
-0.06880296096837055,0.09806747413485933,0.0010146797912931192,0.0
-0.06882629618958189,0.0980433342508476,9.814203955436224E-4,0.0
-0.06892526971402999,0.0980492351113838,9.87857697946751E-4,0.0
-0.06893573033043507,0.09802026725056973,9.934903375494882E-4,0.0
-0.06869969590898703,0.09797922944774978,9.59694499933064E-4,0.0
-0.06853876334890882,0.0980108795178985,9.666682442031198E-4,0.0
-0.06856531722132173,0.09798834895948755,9.438694648587066E-4,0.0
-0.06853205782557223,0.09801570749470084,8.80569324561277E-4,0.0
-0.0684864602668834,0.09798781251762062,8.808375454947407E-4,0.0
-0.06845481019673469,0.097996127366558,9.950996631502703E-4,0.0
-0.06855244261651547,0.09794704293573414,9.183884761796565E-4,0.0
-0.06848592382501648,0.09801624393656777,9.049774295064722E-4,0.0
-0.06829924205532575,0.09801409816910006,8.942485921679249E-4,0.0
-0.068282612357451,0.09802885032044056,8.79764661760886E-4,0.0
-0.06829414585758994,0.09800819730856386,8.738638012246849E-4,0.0
-0.06827000597357821,0.09804682112298263,8.137823121288195E-4,0.0
-0.06829870561345883,0.09797681545934861,8.076132306591547E-4,0.0
-0.06824881651983458,0.09804092026244643,8.921028247002154E-4,0.0
-0.06824532964769955,0.09801892614590241,8.406044054751879E-4,0.0
-0.06819544055407531,0.09796930527321163,8.102954399937916E-4,0.0
-0.06801439142398732,0.09802777743670671,8.116365446611101E-4,0.0
-0.06807742334335129,0.09803823805311179,7.990301607883168E-4,0.0
-0.06811443783216928,0.09798432564548559,8.17537405197311E-4,0.0
-0.06813187219284442,0.09802241301803744,7.861555559820601E-4,0.0
-0.06804657793600297,0.09798191165708442,8.030534747902722E-4,0.0
-0.06787169788738465,0.09803770161124487,8.376539752070874E-4,0.0
-0.06796396588849615,0.09800605154109615,7.998348235887079E-4,0.0
-0.06806079364547654,0.09803099608790827,7.539690439664178E-4,0.0
-0.0679864964469071,0.09802536344830554,7.923246374517247E-4,0.0
-0.06779525492134748,0.0979872760757537,8.215607191992664E-4,0.0
-0.06771934839717726,0.0980374333903114,8.172691842638474E-4,0.0
-0.06775099846732598,0.09804306602991414,8.038581375906632E-4,0.0
-0.06773946496718704,0.0980521855416519,7.778407070446857E-4,0.0
-0.06772042128091112,0.09806452370459123,8.491874753460258E-4,0.0
-0.06768206568742581,0.09801195240163235,8.229018238665848E-4,0.0
-0.06762091131459609,0.09797386502908051,8.148551958626742E-4,0.0
-0.06758926124444738,0.09805245376258537,8.02248811989881E-4,0.0
-0.06753695816242196,0.09803367829724291,7.668436487726746E-4,0.0
-0.06750772208067442,0.09801624393656777,7.681847534399931E-4,0.0
-0.06752837509255112,0.09805620885565386,7.062257178098818E-4,0.0
-0.06752301067388185,0.09803770161124487,7.048846131425634E-4,0.0
-0.06744039862637503,0.0980344829600433,7.899106490505516E-4,0.0
-0.06736502854407174,0.0980521855416519,7.279516134204404E-4,0.0
-0.0673690518580737,0.09806747413485933,7.295609390212225E-4,0.0
-0.06732747761338682,0.09808061696059905,7.123947992795466E-4,0.0
-0.06729153600830269,0.09797145104067934,6.769896360623403E-4,0.0
-0.06722448077493677,0.09799880957589263,7.705987418411662E-4,0.0
-0.06718746628611878,0.09804360247178107,7.815958001131773E-4,0.0
-0.06709332073847303,0.09810153819340922,7.893742071836242E-4,0.0
-0.06700802648163158,0.09805030799511766,7.676483115730656E-4,0.0
-0.06695089542280382,0.09798191165708442,7.150770086141834E-4,0.0
-0.06695089542280382,0.09806023216965581,7.233918575515576E-4,0.0
-0.06694714032973532,0.09812353230995324,7.692576371738478E-4,0.0
-0.06683314643301326,0.09807471610006285,7.762313814439035E-4,0.0
-0.0668114205374027,0.09805138087885151,7.480681834302167E-4,0.0
-0.06673739155976671,0.09801758504123509,7.558465905006636E-4,0.0
-0.06670413216401722,0.09801812148310202,7.504821718313898E-4,0.0
-0.06673792800163364,0.09800444221549537,7.357300204908873E-4,0.0
-0.06678298911845555,0.09800471043642883,7.545054858333452E-4,0.0
-0.06664861043079023,0.09804896689045034,7.207096482169208E-4,0.0
-0.06660515863956912,0.09804574823924878,7.936657421190431E-4,0.0
-0.06661803324437537,0.09800685620389654,7.883013234497695E-4,0.0
-0.06652791101073158,0.09800283288989459,8.355082077393779E-4,0.0
-0.06654346782487247,0.09798700785482023,8.411408473421153E-4,0.0
-0.06657324034848694,0.09800631976202961,8.086861143930095E-4,0.0
-0.06658745605796051,0.09806640125112548,7.9125175371787E-4,0.0
-0.06651342708032454,0.09805325842538576,7.700622999742389E-4,0.0
-0.06658155519742431,0.09802643633203939,7.217825319507756E-4,0.0
-0.06659845311623253,0.09798566675015291,7.786453698450768E-4,0.0
-0.06661240060477264,0.09800229644802766,7.590652417022277E-4,0.0
-0.06666550834959845,0.09806935168139358,7.722080674419483E-4,0.0
-0.06664673288425599,0.09802482700643861,7.649661022384288E-4,0.0
-0.06658745605796051,0.09800685620389654,7.748902767765851E-4,0.0
-0.06658423740675895,0.0979414102961314,7.110536946122282E-4,0.0
-0.0665440042667394,0.09796206330800811,7.311702646220046E-4,0.0
-0.06657458145315426,0.0979746696918809,7.528961602325631E-4,0.0
-0.06666550834959845,0.09794838404040146,7.539690439664178E-4,0.0
-0.06655419666221102,0.09804494357644838,7.94738625852898E-4,0.0
-0.06642384128854767,0.0980197308087028,7.279516134204404E-4,0.0
-0.06641391711400951,0.0980344829600433,7.880331025163058E-4,0.0
-0.06646809774256918,0.09798003411055017,8.451641613440705E-4,0.0
-0.0665166457315261,0.09796528195920967,8.290709053362495E-4,0.0
-0.0665440042667394,0.09800068712242688,8.17537405197311E-4,0.0
-0.06661320526757303,0.09798298454081827,8.145869749292106E-4,0.0
-0.06652871567353197,0.09801785326216855,8.298755681366406E-4,0.0
-0.06646246510296644,0.09797788834308246,7.77572486111222E-4,0.0
-0.06650457578952024,0.09797145104067934,7.687211953069205E-4,0.0
-0.06658128697649085,0.09800444221549537,8.255840332012216E-4,0.0
-0.06654936868540867,0.09798459386641906,8.017123701229537E-4,0.0
-0.0666223247793108,0.09801731682030163,7.805229163793225E-4,0.0
-0.0665587564180799,0.0980647919255247,7.754267186435125E-4,0.0
-0.06657565433688811,0.09799961423869302,7.309020436885409E-4,0.0
-0.06658370096489202,0.09797064637787894,7.748902767765851E-4,0.0
-0.06665451129132643,0.09801034307603157,8.011759282560263E-4,0.0
-0.06665263374479219,0.09804467535551492,7.57992357968373E-4,0.0
-0.06666148503559649,0.09796715950574392,6.622374847218376E-4,0.0
-0.06665397484945951,0.09800015068055995,7.561148114341273E-4,0.0
-0.0666480739889233,0.09796796416854431,7.789135907785405E-4,0.0
-0.06671432455948884,0.09798888540135448,7.778407070446857E-4,0.0
-0.0666813333846728,0.09798861718042101,7.695258581073115E-4,0.0
-0.06661991079090962,0.09793497299372828,7.311702646220046E-4,0.0
-0.06673256358296437,0.09794704293573414,7.427037647609431E-4,0.0
-0.06680498323499957,0.09803796983217833,8.204878354654116E-4,0.0
-0.06675026616457298,0.09804360247178107,7.848144513147414E-4,0.0
-0.06668616136147515,0.09797922944774978,7.73280951175803E-4,0.0
-0.06673336824576476,0.09794597005200029,7.907153118509426E-4,0.0
-0.06681302986300348,0.09797574257561475,7.958115095867527E-4,0.0
-0.06686265073569427,0.09799880957589263,7.896424281170879E-4,0.0
-0.06680632433966689,0.09797842478494939,7.585287998353004E-4,0.0
-0.06680498323499957,0.09791083310971654,7.62283892903792E-4,0.0
-0.06689751945704454,0.0980049786573623,7.888377653166969E-4,0.0
-0.06684789858435376,0.09799103116882218,7.620156719703283E-4,0.0
-0.06673256358296437,0.09796125864520772,7.145405667472561E-4,0.0
-0.06674704751337142,0.09787623260929973,6.807447291308318E-4,0.0
-0.06678942642085868,0.09793363188906096,7.976890561209984E-4,0.0
-0.066820271828207,0.09798030233148364,8.229018238665848E-4,0.0
-0.06680659256060036,0.09794918870320185,8.05735684124909E-4,0.0
-0.0667848666649898,0.09795589422653844,8.033216957237359E-4,0.0
-0.0668114205374027,0.09796555018014313,7.574559161014457E-4,0.0
-0.06680149636286455,0.09791324709811772,8.553565568156906E-4,0.0
-0.06679827771166298,0.09789769028397682,8.392633008078695E-4,0.0
-0.06677655181605242,0.09801195240163235,8.483828125456348E-4,0.0
-0.06667972405907202,0.0979363140983956,8.403361845417243E-4,0.0
-0.0666341265003832,0.09793792342399638,8.2692513786854E-4,0.0
-0.06659684379063174,0.09797815656401593,8.459688241444617E-4,0.0
-0.06647614437057309,0.09796555018014313,8.513332428137353E-4,0.0
-0.0664273281606827,0.09794623827293375,8.596480917511095E-4,0.0
-0.06649089652191359,0.09793390010999442,8.290709053362495E-4,0.0
-0.06650055247551828,0.09792022084238777,8.325577774712774E-4,0.0
-0.06639326410213281,0.0979325590053271,8.733273593577575E-4,0.0
-0.06634713010157706,0.09787891481863437,8.623303010857463E-4,0.0
-0.0663616140319841,0.09790466402824688,8.663536150877017E-4,0.0
-0.06633801058983929,0.09791995262145431,8.974672433694892E-4,0.0
-0.06627176001927376,0.0979502615869357,9.124876156434554E-4,0.0
-0.06623769596072387,0.09793711876119598,9.181202552461928E-4,0.0
-0.06627229646114069,0.09796474551734274,9.173155924458018E-4,0.0
-0.06635437206678058,0.097929608575059,9.275079879174219E-4,0.0
-0.06611297322666326,0.09791646574931928,8.96662580569098E-4,0.0
-0.06605101419103315,0.09786604021382811,9.012223364379807E-4,0.0
-0.06608185959838148,0.09784780119035258,8.912981618998244E-4,0.0
-0.06612638427333645,0.09792585348199051,8.816422082951318E-4,0.0
-0.06603170228382377,0.09801436639003352,8.945168131013886E-4,0.0
-0.06602446031862025,0.09797118281974587,9.344817321874777E-4,0.0
-0.06605798793530321,0.09790037249331146,9.183884761796565E-4,0.0
-0.06608454180771611,0.09794489716826643,9.095371853753549E-4,0.0
-0.06603009295822299,0.09795643066840537,9.237528948489303E-4,0.0
-0.06592253636390405,0.09795374845907073,8.588434289507185E-4,0.0
-0.06589222739842265,0.09796045398240733,9.275079879174219E-4,0.0
-0.06593889784084533,0.09794570183106682,9.401143717902151E-4,0.0
-0.06588954518908802,0.09795589422653844,9.323359647197682E-4,0.0
-0.06583643744426221,0.09796099042427425,9.551347440641813E-4,0.0
-0.06586567352600975,0.09791753863305314,9.704233372716113E-4,0.0
-0.06585521290960467,0.0979355094355952,9.771288606082035E-4,0.0
-0.06577581951329942,0.09793309544719403,9.414554764575335E-4,0.0
-0.06573773214074757,0.09792317127265587,9.280444297843492E-4,0.0
-0.06570098587286305,0.09796072220334079,9.460152323264161E-4,0.0
-0.06575355717582193,0.09793497299372828,9.191931389800475E-4,0.0
-0.06576750466436204,0.0979473111566676,9.519160928626171E-4,0.0
-0.06556499785959695,0.09797145104067934,9.513796509956898E-4,0.0
-0.06558565087147365,0.09791914795865392,9.513796509956898E-4,0.0
-0.06565753408164193,0.09791297887718425,9.551347440641813E-4,0.0
-0.06570420452406461,0.09793148612159325,9.022952201718354E-4,0.0
-0.06559503860414488,0.09785155628342107,9.149016040446286E-4,0.0
-0.06548667734702555,0.09791914795865392,9.773970815416672E-4,0.0
-0.0655542690222584,0.09799693202935839,9.82761500210941E-4,0.0
-0.06562990732549516,0.0979658184010766,9.205342436473659E-4,0.0
-0.06553442067318209,0.09794597005200029,9.326041856532319E-4,0.0
-0.06542686407886315,0.09796045398240733,9.760559768743488E-4,0.0
-0.06549230998662829,0.09795428490093766,9.867848142128962E-4,0.0
-0.06557653135973589,0.09793658231932906,9.623767092677008E-4,0.0
-0.06541452591592382,0.0979355094355952,9.454787904594887E-4,0.0
-0.06533620540335243,0.09792934035412554,9.613038255338461E-4,0.0
-0.06540969793912148,0.09792826747039168,9.765924187412761E-4,0.0
-0.06543437426500014,0.09796233152894157,9.422601392579245E-4,0.0
-0.06537536565963813,0.09794865226133492,9.301901972520587E-4,0.0
-0.06534425203135634,0.09791887973772045,9.765924187412761E-4,0.0
-0.06535498086869489,0.09794033741239755,9.798110699428403E-4,0.0
-0.0653659779269669,0.09787167285343085,9.331406275201593E-4,0.0
-0.0653297681009493,0.09793363188906096,0.0010734201757216662,0.0
-0.0652906078446636,0.09794784759853453,0.0010294319426336221,0.0
-0.06529221717026439,0.09792773102852476,0.001005560279555354,0.0
-0.06535524908962835,0.0979148564237185,9.980500934183708E-4,0.0
-0.06542230432299427,0.09793202256346017,9.704233372716113E-4,0.0
-0.06529007140279668,0.09793363188906096,9.575487324653546E-4,0.0
-0.06529838625173405,0.09791297887718425,0.0010471345242422253,0.0
-0.06534022871735438,0.0979392645286637,0.001019239547162002,0.0
-0.0653061646588045,0.09793577765652867,9.621084883342371E-4,0.0
-0.06529624048426634,0.09793711876119598,9.873212560798236E-4,0.0
-0.06531099263560684,0.09799398159909029,9.924174538156335E-4,0.0
-0.06537321989217042,0.09797976588961671,9.720326628723934E-4,0.0
-0.06541425769499036,0.09794677471480068,9.672046860700472E-4,0.0
-0.06536973302003539,0.09795669888933883,9.838343839447957E-4,0.0
-0.06545207684660874,0.09792558526105705,9.838343839447957E-4,0.0
-0.06556043810372807,0.09792424415638973,9.948314422168066E-4,0.0
-0.06544376199767137,0.09794301962173219,9.747148722070303E-4,0.0
-0.06541747634619192,0.09788910721410599,9.967089887510524E-4,0.0
-0.06549955195183181,0.0979052004701138,0.0010138751284927282,0.0
-0.06554595417332103,0.09789983605144453,0.0010010005236864715,0.0
-0.06551081723103729,0.09790198181891224,9.594262789996003E-4,0.0
-0.06559450216227795,0.09793792342399638,9.532571975299355E-4,0.0
-0.06558055467373784,0.0978971538421099,0.0010026098492872536,0.0
-0.06563151665109594,0.09792290305172241,9.672046860700472E-4,0.0
-0.0657197613382055,0.09798137521521749,0.0010170937796942926,0.0
-0.06573773214074757,0.0979540166800042,0.0010101200354242367,0.0
-0.06568033286098635,0.09788964365597291,9.218753483146843E-4,0.0
-0.06573424526861255,0.09789500807464219,8.888841734986513E-4,0.0
-0.06574685165248534,0.09796045398240733,9.82761500210941E-4,0.0
-0.06576294490849316,0.09792478059825666,0.0010364056869036778,0.0
-0.06583107302559293,0.09784511898101794,9.846390467451868E-4,0.0
-0.06586138199107433,0.09785557959742303,9.80079290876304E-4,0.0
-0.06593299698030913,0.09796742772667738,9.666682442031198E-4,0.0
-0.06592253636390405,0.09792343949358934,9.170473715123381E-4,0.0
-0.06583563278146182,0.09793068145879286,9.191931389800475E-4,0.0
-0.06584958027000193,0.09792799924945822,9.261668832501034E-4,0.0
-0.06593058299190796,0.09789232586530755,9.224117901816117E-4,0.0
-0.0659383613989784,0.09789500807464219,9.076596388411091E-4,0.0
-0.06592253636390405,0.09792638992385744,9.006858945710533E-4,0.0
-0.06600005221367505,0.09796903705227816,8.859337432305507E-4,0.0
-0.0660351891559588,0.09791592930745235,8.955896968352433E-4,0.0
-0.06589437316589036,0.09785236094622146,9.122193947099917E-4,0.0
-0.06584475229319958,0.09790412758637995,8.867384060309417E-4,0.0
-0.06580505559504696,0.09790090893517839,8.309484518704953E-4,0.0
-0.06586567352600975,0.09783117149247783,9.183884761796565E-4,0.0
-0.06583590100239528,0.09785289738808839,9.025634411052991E-4,0.0
-0.0657567758270235,0.0978942034118418,9.020269992383717E-4,0.0
-0.06572110244287283,0.09791512464465196,9.527207556630082E-4,0.0
-0.06574443766408417,0.09787033174876353,9.24825778582785E-4,0.0
-0.06575570294328964,0.09787596438836627,8.953214759017796E-4,0.0
-0.06577125975743053,0.0978845474582371,8.65280731353847E-4,0.0
-0.06561220474388656,0.09788669322570481,9.00149452704126E-4,0.0
-0.06563366241856365,0.0978158828992704,9.057820923068634E-4,0.0
-0.0656052309996165,0.09781051848060113,9.076596388411091E-4,0.0
-0.06555990166186114,0.09790627335384766,8.835197548293775E-4,0.0
-0.06554058975465175,0.097900104272378,8.727909174908302E-4,0.0
-0.06553093380104706,0.09786577199289465,9.114147319096007E-4,0.0
-0.0655100125682369,0.09789956783051107,9.256304413831761E-4,0.0
-0.0654885548935598,0.09790949200504923,9.090007435084275E-4,0.0
-0.06541559879965768,0.09793953274959716,8.786917780270312E-4,0.0
-0.06543249671846589,0.09787757371396705,8.550883358822269E-4,0.0
-0.065464951451415,0.09787998770236822,8.599163126845732E-4,0.0
-0.06542740052073008,0.09783090327154437,7.389486716924515E-4,0.0
-0.0653651732641665,0.09786362622542694,8.803011036278134E-4,0.0
-0.06537590210150505,0.09784082744608252,9.497703253949077E-4,0.0
-0.0654375929162017,0.0978638944463604,8.963943596356343E-4,0.0
-0.0652943629377321,0.09783626769021364,8.625985220192102E-4,0.0
-0.06515998425006679,0.09787542794649934,8.572341033499364E-4,0.0
-0.0652493018209102,0.097852092725288,8.545518940152996E-4,0.0
-0.06518761100621355,0.09784297321355023,8.440912776102158E-4,0.0
-0.06515783848259908,0.09786308978356001,8.3202133560435E-4,0.0
-0.0651406723428574,0.09782902572501012,8.05735684124909E-4,0.0
-0.0651857334596793,0.09783465836461286,7.815958001131773E-4,0.0
-0.06504840434174589,0.09787140463249738,8.02248811989881E-4,0.0
-0.06498912751545041,0.09777699086391817,8.011759282560263E-4,0.0
-0.06499154150385159,0.09779710743392794,7.759631605104399E-4,0.0
-0.06492153584021756,0.09780032608512951,7.692576371738478E-4,0.0
-0.06495130836383203,0.09782285664354046,7.689894162403842E-4,0.0
-0.06500736653892594,0.09780917737593381,7.740856139761941E-4,0.0
-0.06496445118957175,0.09772897931682817,7.252694040858036E-4,0.0
-0.06482122121110215,0.09789393519090833,7.410944391601609E-4,0.0
-0.06484026489737807,0.09784190032981638,7.354617995574236E-4,0.0
-0.06489229975847002,0.09783975456234867,7.384122298255241E-4,0.0
-0.06489900528180662,0.09782500241100817,7.268787296865857E-4,0.0
-0.06490007816554047,0.09780032608512951,6.378293797766422E-4,0.0
-0.06492904602635455,0.09779603455019409,7.290244971542952E-4,0.0
-0.06496793806170678,0.09782392952727431,8.285344634693222E-4,0.0
-0.06500522077145823,0.09781722400393772,7.609427882364736E-4,0.0
-0.06493655621249153,0.0978314397134113,7.416308810270883E-4,0.0
-0.06491000234007863,0.09784002278328213,7.464588578294346E-4,0.0
-0.06497678935251108,0.09782071087607275,7.126630202130103E-4,0.0
-0.06503311574853846,0.09781320068993576,6.834269384654687E-4,0.0
-0.06495613634063438,0.09783385370181247,6.820858337981502E-4,0.0
-0.06492207228208449,0.09784377787635062,6.810129500642955E-4,0.0
-0.0649537223522332,0.09782634351567548,6.649196940564744E-4,0.0
-0.06501702249253064,0.09777725908485163,6.225407865692123E-4,0.0
-0.06516722621527031,0.09784941051595336,6.482899961817261E-4,0.0
-0.06508675993523119,0.09784941051595336,6.643832521895471E-4,0.0
-0.06488237558393187,0.0978424367716833,6.582141707198824E-4,0.0
-0.06493870197995924,0.09785692070209034,6.354153913754691E-4,0.0
-0.06497839867811186,0.09783868167861481,6.257594377707765E-4,0.0
-0.06501192629479483,0.09785182450435453,6.118119492306649E-4,0.0
-0.06496498763143868,0.09781910155047197,6.308556355065865E-4,0.0
-0.06500978052732712,0.09786764953942889,6.394387053774244E-4,0.0
-0.06501809537626449,0.09788803433037213,5.895496117531791E-4,0.0
-0.06501836359719795,0.09784404609728409,6.177128097668659E-4,0.0
-0.06506637514428795,0.09782339308540738,6.118119492306649E-4,0.0
-0.06512028755191417,0.0978188333295385,6.305874145731227E-4,0.0
-0.06505403698134862,0.09784055922514906,6.98447310739435E-4,0.0
-0.06500307500399052,0.09789473985370872,6.694794499253571E-4,0.0
-0.06500227034119013,0.09788025592330168,7.091761480779824E-4,0.0
-0.06506181538841907,0.09784404609728409,6.820858337981502E-4,0.0
-0.06510955871457562,0.09785718892302381,6.52581531117145E-4,0.0
-0.06509614766790243,0.09783868167861481,6.426573565789886E-4,0.0
-0.0651208239937811,0.09778611037565593,6.53386193917536E-4,0.0
-0.0651377219125893,0.0978550431555561,6.43998461246307E-4,0.0
-0.06519807162261863,0.0978255388528751,6.279052052384859E-4,0.0
-0.06520826401809025,0.09785397027182224,6.458760077805528E-4,0.0
-0.06523052635556774,0.09786469910916079,6.472171124478712E-4,0.0
-0.06526137176291606,0.09782687995754241,6.292463099058043E-4,0.0
-0.06532896343814891,0.0978824016907694,5.898178326866428E-4,0.0
-0.06528014722825852,0.09785987113235844,5.506575764009447E-4,0.0
-0.06513638080792199,0.09787623260929973,7.292927180877588E-4,0.0
-0.0651111680401764,0.09783921812048174,7.236600784850213E-4,0.0
-0.06522677126249925,0.0978756961674328,6.52581531117145E-4,0.0
-0.06526003065824874,0.0978579935858242,6.271005424380949E-4,0.0
-0.06514576854059322,0.09788991187690638,6.421209147120612E-4,0.0
-0.06529409471679863,0.09791566108651889,6.206632400349664E-4,0.0
-0.06538341228764204,0.09788132880703554,5.479753670663079E-4,0.0
-0.065464951451415,0.09791136955158347,6.260276587042402E-4,0.0
-0.06544671242793947,0.09791083310971654,6.775260779292677E-4,0.0
-0.06536195461296494,0.09791887973772045,6.450713449801617E-4,0.0
-0.06546951120728388,0.09790090893517839,6.144941585653018E-4,0.0
-0.0655180591962408,0.09791378353998464,5.925000420212796E-4,0.0
-0.06542203610206081,0.09788079236516861,6.016195537590449E-4,0.0
-0.06544429843953829,0.09790493224918034,6.072521933617823E-4,0.0
-0.06553763932438365,0.09787703727210012,6.03228879359827E-4,0.0
-0.06558055467373784,0.09787194107436431,5.890131698862518E-4,0.0
-0.06552422827771047,0.09789876316771068,6.024242165594359E-4,0.0
-0.06552959269637974,0.09785906646955805,5.857945186846874E-4,0.0
-0.06560710854615075,0.09790439580731342,5.686283789430116E-4,0.0
-0.0656317848720294,0.09793416833092788,5.734563557453579E-4,0.0
-0.06577608773423288,0.0978794512605013,5.482435879997716E-4,0.0
-0.06576670000156165,0.09789259408624101,5.560219950702185E-4,0.0
-0.0656814057447202,0.09787676905116666,6.316602983069776E-4,0.0
-0.06573853680354796,0.09785853002769113,5.906224954870338E-4,0.0
-0.06571117826833467,0.09785584781835649,5.246401458549674E-4,0.0
-0.06577099153649707,0.09782983038781051,5.367100878608331E-4,0.0
-0.06583965609546377,0.09790359114451302,5.482435879997716E-4,0.0
-0.06578440258317025,0.09791029666784962,5.123019829156378E-4,0.0
-0.06576589533876126,0.0978853521210375,5.313456691915595E-4,0.0
-0.06579352209490802,0.09788481567917057,5.506575764009447E-4,0.0
-0.06582865903719176,0.09787194107436431,5.377829715946878E-4,0.0
-0.0658283908162583,0.0978727457371647,4.991591571759172E-4,0.0
-0.0658187348626536,0.0979325590053271,5.013049246436268E-4,0.0
-0.06575811693169081,0.09788964365597291,5.635321812072016E-4,0.0
-0.06582356283945595,0.09786228512075962,5.79357216281559E-4,0.0
-0.06583268235119372,0.09783814523674789,5.528033438686542E-4,0.0
-0.06585923622360662,0.09787757371396705,5.238354830545763E-4,0.0
-0.06585950444454008,0.0978668448766285,5.283952389234589E-4,0.0
-0.0658460933978669,0.09789473985370872,5.670190533422295E-4,0.0
-0.06585735867707238,0.09783492658554632,5.359054250604421E-4,0.0
-0.06596062373645589,0.09787489150463241,4.7716504063189514E-4,0.0
-0.0658852536541526,0.09790815090038191,5.506575764009447E-4,0.0
-0.06584207008386495,0.09791861151678699,5.439520530643526E-4,0.0
-0.065993078469405,0.09781910155047197,5.621910765398832E-4,0.0
-0.06606710744704097,0.09781212780620191,5.895496117531791E-4,0.0
-0.06595069956191774,0.0978306350506109,5.310774482580958E-4,0.0
-0.06583938787453031,0.09784163210888291,5.281270179899952E-4,0.0
-0.0658941049449569,0.09787355039996509,5.080104479802188E-4,0.0
-0.06591448973590014,0.097852092725288,4.7180062196262146E-4,0.0
-0.06589544604962422,0.09780944559686727,5.227625993207216E-4,0.0
-0.0659665245969921,0.09785343382995532,5.570948788040732E-4,0.0
-0.06597403478312908,0.09785450671368917,5.659461696083748E-4,0.0
-0.06592199992203712,0.09787328217903163,5.412698437297158E-4,0.0
-0.06591019820096472,0.09787891481863437,5.064011223794367E-4,0.0
-0.06589517782869075,0.09785933469049152,4.95135843173962E-4,0.0
-0.06601024460914667,0.09784887407408643,4.581213543559735E-4,0.0
-0.0661569614597513,0.09786952708596314,3.6048893457519225E-4,0.0
-0.06608400536584919,0.0978638944463604,5.734563557453579E-4,0.0
-0.06595525931778662,0.09788427923730364,5.536080066690453E-4,0.0
-0.06600327086487662,0.09785718892302381,5.101562154479284E-4,0.0
-0.06603465271409187,0.09784190032981638,4.7367816849686723E-4,0.0
-0.0660461862142308,0.09776626202657962,4.691184126279846E-4,0.0
-0.06606388879583941,0.09783519480647979,4.921854129058615E-4,0.0
-0.06603250694662416,0.097852092725288,4.7367816849686723E-4,0.0
-0.0661548156922836,0.09785101984155414,4.913807501054705E-4,0.0
-0.06620390012310745,0.09778476927098861,4.728735056964762E-4,0.0
-0.06618673398336578,0.097852092725288,4.6724086609373883E-4,0.0
-0.06614864661081393,0.09786067579515884,4.549027031544093E-4,0.0
-0.0662175793907141,0.09784377787635062,4.570484706221188E-4,0.0
-0.06630796984529136,0.0978697953068966,4.2191152833837605E-4,0.0
-0.06621892049538142,0.09778476927098861,4.7180062196262146E-4,0.0
-0.06617815091349494,0.09782983038781051,5.251765877218947E-4,0.0
-0.06626961425180605,0.09781105492246805,5.125702038491015E-4,0.0
-0.06633050040370231,0.09781025025966766,4.8038369183345936E-4,0.0
-0.06624091461192544,0.09784806941128604,4.7582393596457673E-4,0.0
-0.06614730550614661,0.09785182450435453,4.6509509862602933E-4,0.0
-0.06617868735536186,0.09780032608512951,4.996955990428446E-4,0.0
-0.06622884466991957,0.0978453872019514,5.434156111974252E-4,0.0
-0.066214628960446,0.09784216855074984,5.243719249215037E-4,0.0
-0.0661939759485693,0.09786174867889269,5.114973201152468E-4,0.0
-0.06621892049538142,0.09786738131849543,4.8413878490195095E-4,0.0
-0.06626290872846946,0.09786067579515884,4.8226123836770513E-4,0.0
-0.06613174869200572,0.09785423849275571,4.2566662140686764E-4,0.0
-0.06595445465498623,0.09782258842260699,4.3210392380999614E-4,0.0
-0.06596384238765746,0.09780166718979683,4.5409804035401825E-4,0.0
-0.0660196323418179,0.09786818598129582,4.012585164616724E-4,0.0
-0.06602177810928561,0.09787328217903163,4.701912963618394E-4,0.0
-0.06596384238765746,0.0978904483187733,4.393458890135156E-4,0.0
-0.065974571224996,0.09788562034197096,4.130602375340745E-4,0.0
-0.0660912473310527,0.09785048339968722,3.9696698152625346E-4,0.0
-0.06612021519186678,0.09786067579515884,4.2888527260843187E-4,0.0
-0.06597215723659483,0.09789313052810794,4.380047843461972E-4,0.0
-0.06594721268978271,0.09784109566701599,4.3022637727575027E-4,0.0
-0.06601212215568092,0.09782929394594359,4.184246562033482E-4,0.0
-0.0660558421678355,0.09784511898101794,4.248619586064766E-4,0.0
-0.06606844855170829,0.09790573691198073,4.5785313342250984E-4,0.0
-0.06603277516755762,0.09792048906332124,4.616082264910015E-4,0.0
-0.06603170228382377,0.09787059996969699,4.61071784624074E-4,0.0
-0.0660343844931584,0.09785316560902185,3.9723520245971714E-4,0.0
-0.0660735447494441,0.09789554451650911,4.7716504063189514E-4,0.0
-0.06607998205184723,0.09786282156262655,5.080104479802188E-4,0.0
-0.06607864094717991,0.09790064071424492,4.688501916945209E-4,0.0
-0.06614140464561041,0.09790466402824688,4.699230754283757E-4,0.0
-0.06616447164588829,0.09786738131849543,4.8440700583541463E-4,0.0
-0.06614140464561041,0.0978483376322195,4.766285987649678E-4,0.0
-0.06620738699524248,0.09786121223702576,4.932582966397163E-4,0.0
-0.06624306037939315,0.09775472852644068,4.361272378119514E-4,0.0
-0.0662559349841994,0.09787998770236822,4.562438078217277E-4,0.0
-0.0662234802512503,0.09790868734224883,4.4417386581586195E-4,0.0
-0.06624279215845968,0.09783170793434476,4.8762565703697885E-4,0.0
-0.06629563168235203,0.09790439580731342,4.7689681969843146E-4,0.0
-0.06630528763595672,0.09789232586530755,4.6026712182368297E-4,0.0
-0.0662618358447356,0.0978845474582371,4.6831374982759356E-4,0.0
-0.06635061697371208,0.09785853002769113,4.184246562033482E-4,0.0
-0.06649921137085096,0.0978129324690023,4.4363742394893453E-4,0.0
-0.06633532838050465,0.09781132314340152,4.0233140019552713E-4,0.0
-0.06612584783146952,0.09787918303956783,4.4927006355167194E-4,0.0
-0.06618110134376304,0.0978668448766285,4.830659011680962E-4,0.0
-0.06627256468207415,0.09784297321355023,4.4524674954971667E-4,0.0
-0.06619478061136969,0.09783197615527822,3.814101673853597E-4,0.0
-0.06616527630868868,0.09790251826077917,4.4041877274737036E-4,0.0
-0.0661577661225517,0.09789500807464219,4.5195227288630875E-4,0.0
-0.0662323315420546,0.09786845420222928,4.487336216847446E-4,0.0
-0.06624359682126008,0.09786335800449347,4.425645402150798E-4,0.0
-0.06616929962269064,0.09789366696997487,4.640222148921746E-4,0.0
-0.06616232587842058,0.09787247751623124,4.401505518139067E-4,0.0
-0.06619048907643427,0.09789447163277526,4.1896109807027556E-4,0.0
-0.06622508957685108,0.09785316560902185,4.3022637727575027E-4,0.0
-0.06620014503003896,0.09786148045795923,4.581213543559735E-4,0.0
-0.06614462329681198,0.09789742206304336,4.581213543559735E-4,0.0
-0.06617064072735795,0.09782232020167353,4.2432551673954924E-4,0.0
-0.0662529845539313,0.09784458253915101,4.342496912777056E-4,0.0
-0.06622160270471605,0.09788106058610208,4.1681533060256606E-4,0.0
-0.06620658233244209,0.09791029666784962,3.7872795805072283E-4,0.0
-0.06634471611317588,0.09786952708596314,4.4417386581586195E-4,0.0
-0.06623608663512309,0.09791539286558543,4.377365634127335E-4,0.0
-0.0660646934586398,0.0979052004701138,4.1198735380021975E-4,0.0
-0.06605476928410164,0.09786630843476157,4.3478613314463295E-4,0.0
-0.06606898499357522,0.09786255334169308,4.146695631348566E-4,0.0
-0.06610143972652432,0.09787006352783006,4.125237956671471E-4,0.0
-0.06609553886598812,0.0978794512605013,4.087687025986555E-4,0.0
-0.06603089762102338,0.09784216855074984,4.1681533060256606E-4,0.0
-0.06605128241196662,0.09788669322570481,4.4229631928161613E-4,0.0
-0.06608936978451846,0.09787676905116666,4.4712429608396244E-4,0.0
-0.06613013936640494,0.0978933987490414,3.966987605927897E-4,0.0
-0.06605101419103315,0.09790815090038191,4.4068699368083404E-4,0.0
-0.06603760314435997,0.09790198181891224,4.664362032933478E-4,0.0
-0.0660832007030488,0.0978512880624876,4.280806098080408E-4,0.0
-0.06604564977236388,0.09787301395809817,4.465878542170351E-4,0.0
-0.0660166819115498,0.09791646574931928,4.498065054185993E-4,0.0
-0.06599361491127193,0.09790707801664805,4.3210392380999614E-4,0.0
-0.06600300264394315,0.09787918303956783,4.2271619113876715E-4,0.0
-0.0660802502727807,0.09787408684183202,4.004538536612813E-4,0.0
-0.06607783628437952,0.09793041323785939,3.583431671074828E-4,0.0
-0.06601453614408209,0.09792531704012358,4.3076281914267763E-4,0.0
-0.06601748657435019,0.097900104272378,5.420745065301068E-4,0.0
-0.06601721835341673,0.09792290305172241,4.677773079606662E-4,0.0
-0.06604430866769656,0.09790815090038191,4.2539840047340396E-4,0.0
-0.06604430866769656,0.0978609440160923,4.664362032933478E-4,0.0
-0.06617976023909572,0.09783304903901208,4.6053534275714665E-4,0.0
-0.06608185959838148,0.09793658231932906,4.785061452992136E-4,0.0
-0.06596545171325824,0.09792317127265587,4.74751052230722E-4,0.0
-0.06609017444731885,0.09790466402824688,4.460514123501077E-4,0.0
-0.06610921813359477,0.09788266991170286,4.7555571503111305E-4,0.0
-0.0660402853536946,0.09786845420222928,4.959405059743531E-4,0.0
-0.06601855945808405,0.09790466402824688,4.5758491248904616E-4,0.0
-0.0659812767483326,0.09790278648171263,4.3827300527966086E-4,0.0
-0.0659657199341917,0.09786067579515884,4.176199934029571E-4,0.0
-0.06601641369061634,0.09785987113235844,4.15206005001784E-4,0.0
-0.06605503750503511,0.09791646574931928,4.2942171447535923E-4,0.0
-0.066041090016495,0.0978874978885052,4.130602375340745E-4,0.0
-0.06601051283008014,0.09788052414423515,4.1413312126792925E-4,0.0
-0.06602955651635606,0.09789500807464219,3.993809699274266E-4,0.0
-0.06607810450531298,0.09787355039996509,3.583431671074828E-4,0.0
-0.0660832007030488,0.09782607529474202,3.5673384150670067E-4,0.0
-0.0660351891559588,0.09784377787635062,3.8945679538927023E-4,0.0
-0.06610143972652432,0.09785397027182224,4.0099029552820867E-4,0.0
-0.06617573692509376,0.09785987113235844,3.323257365615054E-4,0.0
-0.06617600514602723,0.0978668448766285,3.7872795805072283E-4,0.0
-0.06609178377291963,0.09786282156262655,4.50879389152454E-4,0.0
-0.06617198183202527,0.09784994695782029,3.958940977923987E-4,0.0
-0.06614435507587851,0.09781051848060113,3.245473294910586E-4,0.0
-0.06617707802976108,0.09796125864520772,2.864599569392153E-4,0.0
-0.06621704294884717,0.09792317127265587,4.146695631348566E-4,0.0
-0.06613013936640494,0.09791753863305314,4.3344502847731455E-4,0.0
-0.0661939759485693,0.09788293813263632,3.473461088354717E-4,0.0
-0.06626317694940292,0.09785397027182224,3.612935973755833E-4,0.0
-0.06631092027555946,0.09787837837676744,3.926754465908345E-4,0.0
-0.0663755615205242,0.09790144537704532,4.315674819430688E-4,0.0
-0.06628168419381192,0.09793094967972632,4.012585164616724E-4,0.0
-0.06619719459977086,0.09789876316771068,4.10109807265974E-4,0.0
-0.06618244244843036,0.09795669888933883,4.10109807265974E-4,0.0
-0.06621945693724834,0.09796715950574392,3.9723520245971714E-4,0.0
-0.06628517106594695,0.09794409250546604,3.4680966696854436E-4,0.0
-0.06632996396183538,0.09791029666784962,3.4466389950083486E-4,0.0
-0.06630743340342443,0.09794060563333101,4.460514123501077E-4,0.0
-0.06630636051969058,0.09792156194705509,4.6348577302524725E-4,0.0
-0.0663549085086475,0.09793497299372828,4.3559079594502405E-4,0.0
-0.06635008053184516,0.09793175434252671,4.173517724694934E-4,0.0
-0.06638629035786275,0.09797520613374783,4.2298441207223083E-4,0.0
-0.06628999904274929,0.09795482134280459,4.1171913286675607E-4,0.0
-0.06628758505434812,0.09794972514506878,4.15206005001784E-4,0.0
-0.0663068969615575,0.09797815656401593,4.1574244686871134E-4,0.0
-0.06632084445009762,0.09799290871535643,4.1681533060256606E-4,0.0
-0.06621677472791371,0.09796340441267543,4.1332845846753816E-4,0.0
-0.06620148613470628,0.0979746696918809,4.197657608706666E-4,0.0
-0.06636295513665141,0.09794784759853453,4.004538536612813E-4,0.0
-0.06639540986960052,0.09795267557533688,4.3183570287653246E-4,0.0
-0.06622294380938337,0.09797493791281436,4.251301795399403E-4,0.0
-0.06622723534431879,0.09795213913346995,4.245937376730129E-4,0.0
-0.06632754997343421,0.09789473985370872,3.7175421378066707E-4,0.0
-0.06636617378785298,0.09797037815694548,4.1708355153602974E-4,0.0
-0.06639514164866706,0.09792236660985548,3.596842717748012E-4,0.0
-0.06624896123992935,0.09794033741239755,4.4417386581586195E-4,0.0
-0.06630796984529136,0.09792853569132515,4.259348423403313E-4,0.0
-0.06641981797454571,0.09788776610943867,3.8436059765346024E-4,0.0
-0.06636241869478449,0.09781856510860504,3.9991741179435395E-4,0.0
-0.0662685413680722,0.09785397027182224,4.4417386581586195E-4,0.0
-0.06629241303115047,0.09792853569132515,4.2271619113876715E-4,0.0
-0.06640935735814063,0.09792585348199051,3.776550743168681E-4,0.0
-0.06637019710185493,0.0979060051329142,4.3022637727575027E-4,0.0
-0.0663675148925203,0.09795723533120576,4.613400055575378E-4,0.0
-0.06641740398614454,0.0978942034118418,4.463196332835714E-4,0.0
-0.06641579466054376,0.09790198181891224,4.546344822209456E-4,0.0
-0.06634552077597627,0.09791619752838582,4.2030220273759397E-4,0.0
-0.06632969574090192,0.09785316560902185,4.353225750115603E-4,0.0
-0.06644073920735588,0.09788937543503945,5.133748666494927E-4,0.0
-0.06647775369617387,0.09789983605144453,5.023778083774815E-4,0.0
-0.0663675148925203,0.09789956783051107,4.661679823598841E-4,0.0
-0.0663578589389156,0.09789152120250716,4.4578319141664403E-4,0.0
-0.06640050606733633,0.09785048339968722,4.2432551673954924E-4,0.0
-0.0663940687649332,0.09779952142232912,4.1681533060256606E-4,0.0
-0.06637100176465532,0.09783036682967744,4.8789387797044254E-4,0.0
-0.06640104250920326,0.09780300829446414,4.259348423403313E-4,0.0
-0.06643698411428739,0.09784458253915101,4.476607379508898E-4,0.0
-0.06641820864894493,0.09785960291142498,4.2083864460452133E-4,0.0
-0.06650108891738521,0.09783251259714515,3.9026145818966127E-4,0.0
-0.06640479760227175,0.097833585480879,3.953576559254713E-4,0.0
-0.0663822670438608,0.09783599946928018,4.213750864714487E-4,0.0
-0.0664605875564322,0.09776089760791035,3.7953262085111387E-4,0.0
-0.06648955541724627,0.09782902572501012,4.916489710389342E-4,0.0
-0.06645602780056331,0.09783787701581442,4.95135843173962E-4,0.0
-0.06651101309192337,0.09781936977140543,4.739463894303309E-4,0.0
-0.06650591689418756,0.0977686760149808,4.911125291720067E-4,0.0
-0.06666336258213074,0.09778289172445437,4.484654007512809E-4,0.0
-0.06661508281410727,0.09773809882856593,3.993809699274266E-4,0.0
-0.06656304795301532,0.09772307845629197,3.492236553697175E-4,0.0
-0.0665890653835613,0.09784672830661872,3.824830511192144E-4,0.0
-0.0667693098508489,0.0978314397134113,4.044771676632366E-4,0.0
-0.06684226594475103,0.09782714817847588,3.779232952503318E-4,0.0
-0.06660703618610336,0.09783573124834671,3.529787484382091E-4,0.0
-0.06659657556969828,0.09781668756207079,3.403723645654159E-4,0.0
-0.06670761903615224,0.09781239602713537,3.988445280604992E-4,0.0
-0.06673712333883325,0.09780890915500035,3.655851323110023E-4,0.0
-0.06674838861803874,0.0977914747943252,3.578067252405554E-4,0.0
-0.06678459844405633,0.09781320068993576,3.6478046951061126E-4,0.0
-0.06683368287488019,0.09777511331738392,3.3339862029536016E-4,0.0
-0.06682188115380779,0.09776089760791035,3.1542781775329326E-4,0.0
-0.06678272089752209,0.09777430865458353,3.3661727149692433E-4,0.0
-0.06682134471194086,0.09777779552671856,3.4841899256932645E-4,0.0
-0.06684414349128527,0.09777886841045241,3.374219342973154E-4,0.0
-0.06690395675944767,0.09772120090975772,2.8190020107033266E-4,0.0
-0.06689456902677644,0.09777216288711582,3.4707788790200805E-4,0.0
-0.06689054571277449,0.09775982472417649,3.8436059765346024E-4,0.0
-0.06692756020159248,0.09775338742177336,3.320575156280417E-4,0.0
-0.06694687210880186,0.09774587723563638,3.22401562023349E-4,0.0
-0.06690583430598192,0.09773702594483208,3.730953184479855E-4,0.0
-0.066982813713886,0.09774480435190253,3.3983592269848855E-4,0.0
-0.06702063286550437,0.09773192974709627,3.492236553697175E-4,0.0
-0.06695786916707387,0.09775526496830761,3.0013922454586323E-4,0.0
-0.06697718107428326,0.0977405128169671,2.5427344492357315E-4,0.0
-0.0670965393896746,0.09773407551456398,2.652705031955842E-4,0.0
-0.06709385718033996,0.09775687429390839,3.5405163217206386E-4,0.0
-0.06699622476055918,0.09782419774820778,3.3956770176502487E-4,0.0
-0.06701500022590164,0.09786228512075962,3.0604008508206427E-4,0.0
-0.06698120438828521,0.09783331725994554,3.516376437708907E-4,0.0
-0.06704450452858264,0.09779898498046219,2.805590964030142E-4,0.0
-0.06712362970395443,0.09773675772389862,2.4113061918385256E-4,0.0
-0.06710485423861197,0.09783465836461286,3.7336353938144916E-4,0.0
-0.06705603802872158,0.09784511898101794,3.253519922914496E-4,0.0
-0.06708473766860219,0.09780354473633107,3.0121210827971796E-4,0.0
-0.06714884247170001,0.09775285097990644,2.5910142172591946E-4,0.0
-0.06719256248385459,0.09777860018951895,2.47567921586981E-4,0.0
-0.06715769376250431,0.09782044265513928,3.1864646895485743E-4,0.0
-0.06712255682022057,0.09784377787635062,3.202557945556396E-4,0.0
-0.0671593030881051,0.09781051848060113,2.789497708022321E-4,0.0
-0.0672065099723947,0.09784136388794945,2.47567921586981E-4,0.0
-0.06722662654240448,0.09780917737593381,2.250373631760315E-4,0.0
-0.06716761793704247,0.0978255388528751,2.2208693290793097E-4,0.0
-0.06715152468103465,0.0978276846203428,1.8748643249111562E-4,0.0
-0.06717298235571174,0.09783760879488096,1.88022874358043E-4,0.0
-0.06722689476333794,0.09787971948143476,1.2043119912519444E-4,0.0
-0.06726873722895828,0.09774399968910213,1.5342237394122768E-4,0.0
-0.06742671935876839,0.09783224437621169,2.4166706105077995E-4,0.0
-0.06730333772937509,0.09789688562117643,2.161860723717299E-4,0.0
-0.06709466184314035,0.09786201689982615,1.7461182768485875E-4,0.0
-0.0670906385291384,0.09785262916715493,1.5529992047547345E-4,0.0
-0.06721804347253364,0.09782929394594359,1.6763808341480296E-4,0.0
-0.06726793256615789,0.09784297321355023,2.2047760730714886E-4,0.0
-0.06724996176361582,0.09781963799233889,1.6441943221323876E-4,0.0
-0.06720329132119314,0.09783975456234867,1.915097464930709E-4,0.0
-0.0672604223800209,0.09783170793434476,1.987517116965904E-4,0.0
-0.06737361161394258,0.0978255388528751,1.9338729302731668E-4,0.0
-0.06735993234633593,0.09779576632926062,1.8346311848916038E-4,0.0
-0.06732935515992107,0.09782312486447392,1.7809869981988665E-4,0.0
-0.06731674877604828,0.09778879258499057,1.8185379288837827E-4,0.0
-0.06736207811380364,0.09787140463249738,2.27987793444132E-4,0.0
-0.0673631509975375,0.09789393519090833,2.0813944436781935E-4,0.0
-0.0673800489163457,0.09783385370181247,2.1216275836977462E-4,0.0
-0.06740982143996017,0.09778476927098861,2.006292582308362E-4,0.0
-0.06742081849823219,0.09784055922514906,2.124309793032383E-4,0.0
-0.06738702266061576,0.09781373713180269,1.8614532782379722E-4,0.0
-0.06743744819610693,0.09781051848060113,1.5047194367312714E-4,0.0
-0.06742779224250224,0.09778503749192208,1.3920666446765238E-4,0.0
-0.06736046878820286,0.09781534645740347,1.7997624635413245E-4,0.0
-0.06736878363714023,0.09784404609728409,2.07603002500892E-4,0.0
-0.0674857279641304,0.09781105492246805,2.682209334636847E-4,0.0
-0.06757826418617537,0.09780300829446414,2.392530726496068E-4,0.0
-0.06764826984980939,0.09786711309756196,2.0518901409971883E-4,0.0
-0.06759006590724777,0.09782714817847588,1.43766420336535E-4,0.0
-0.06746266096385252,0.09785638426022342,2.609789682601653E-4,0.0
-0.06744790881251202,0.0978343901436794,2.6124718919362896E-4,0.0
-0.06753910392988967,0.09783009860874398,2.3844840984921573E-4,0.0
-0.06759489388405011,0.09781534645740347,2.3227932837955099E-4,0.0
-0.0675935527793828,0.09783921812048174,2.3442509584726046E-4,0.0
-0.0676356634659366,0.09783331725994554,2.4354460758502575E-4,0.0
-0.06757558197684073,0.09775419208457375,2.0465257223279144E-4,0.0
-0.0675506374300286,0.09778289172445437,1.915097464930709E-4,0.0
-0.0675986489771186,0.09784780119035258,2.086758862347467E-4,0.0
-0.06759408922124972,0.09781776044580465,1.6844274621519403E-4,0.0
-0.06764344187300704,0.0978343901436794,1.8775465342457933E-4,0.0
-0.06771210643197374,0.09783921812048174,1.620054438120656E-4,0.0
-0.06767375083848844,0.09782741639940934,1.3437868766530604E-4,0.0
-0.0676437100939405,0.09782607529474202,1.805126882210598E-4,0.0
-0.0676887712107624,0.09778611037565593,1.9982459543044513E-4,0.0
-0.06778211209560776,0.09785155628342107,1.6576053688055717E-4,0.0
-0.0677818438746743,0.09778745148032325,8.07345009725691E-5,0.0
-0.06770674201330447,0.09783385370181247,1.6173722287860187E-4,0.0
-0.06769359918756475,0.09787596438836627,1.3062359459681448E-4,0.0
-0.06787035678271733,0.09779013368965789,1.1667610605670287E-4,0.0
-0.06775314423479369,0.09782312486447392,1.5664102514279188E-4,0.0
-0.06767643304782307,0.09785557959742303,1.3089181553027816E-4,0.0
-0.06768716188516162,0.09783573124834671,1.389384435341887E-4,0.0
-0.06776011797906374,0.09783841345768135,1.4859439713888134E-4,0.0
-0.06779766890974866,0.0978394863414152,1.4296175753614396E-4,0.0
-0.06767911525715771,0.09782124731793967,8.931757084340701E-5,0.0
-0.06767482372222229,0.09782634351567548,9.360910577882597E-5,0.0
-0.06766999574541994,0.0978099820387342,1.4939905993927241E-4,0.0
-0.06769708605969978,0.0977796730732528,1.0862947805279232E-4,0.0
-0.06767133685008726,0.09787006352783006,1.244545131271497E-4,0.0
-0.06764773340794246,0.09788481567917057,1.2794138526217762E-4,0.0
-0.06769869538530056,0.09785316560902185,8.663536150877017E-5,0.0
-0.06772900435078195,0.09785289738808839,2.2771957251066833E-4,0.0
-0.06765363426847866,0.09784592364381833,2.3227932837955099E-4,0.0
-0.06759221167471548,0.0977944252245933,2.2289159570832202E-4,0.0
-0.06767214151288765,0.09777591798018431,2.4703147972005365E-4,0.0
-0.06768474789676045,0.09780569050379878,2.489090262542994E-4,0.0
-0.06770915600170564,0.09780676338753264,2.231598166417857E-4,0.0
-0.06764612408234168,0.09783331725994554,2.6768449159675735E-4,0.0
-0.06769386740849821,0.09781963799233889,2.523958983893273E-4,0.0
-0.06782958720083083,0.09779657099206102,2.582967589255284E-4,0.0
-0.06784728978243945,0.09779496166646023,2.668798287963663E-4,0.0
-0.06760025830271939,0.09779737565486141,2.7251246839910367E-4,0.0
-0.06761742444246106,0.09782232020167353,2.5695565425821E-4,0.0
-0.06760025830271939,0.09780032608512951,2.515912355889363E-4,0.0
-0.0676289579426,0.09780756805033303,2.6607516599597527E-4,0.0
-0.06761206002379179,0.09778128239885359,2.572238751916737E-4,0.0
-0.06763619990780352,0.09782232020167353,2.0357968849893672E-4,0.0
-0.06775207135105983,0.09779415700365984,2.1538140957133882E-4,0.0
-0.06777835700253927,0.09782983038781051,2.3174288651262362E-4,0.0
-0.06766409488488374,0.09781320068993576,3.1489137588636585E-4,0.0
-0.06762278886113034,0.09782446596914124,3.427863529665891E-4,0.0
-0.06769064875729665,0.0978255388528751,3.159642596202206E-4,0.0
-0.06772900435078195,0.09781132314340152,3.038943176143548E-4,0.0
-0.0677308818973162,0.09780971381780074,2.794862126691595E-4,0.0
-0.0676740190594219,0.09785531137648956,2.684891543971484E-4,0.0
-0.06768796654796201,0.09789876316771068,2.1296742117016566E-4,0.0
-0.0677523395719933,0.09781454179460308,2.1377208397055673E-4,0.0
-0.0677670917233338,0.09776411625911191,1.9767882796273566E-4,0.0
-0.06775475356039447,0.09777055356151504,2.2906067717798676E-4,0.0
-0.06781456682855687,0.09781239602713537,2.738535730664221E-4,0.0
-0.06781054351455491,0.09780086252699643,2.4220350291770731E-4,0.0
-0.06778935406081128,0.09790976022598269,2.4300816571809836E-4,0.0
-0.06780517909588564,0.09789661740024297,2.4461749131888047E-4,0.0
-0.06779847357254905,0.09782097909700621,2.3415687491379678E-4,0.0
-0.06773866030438665,0.09779013368965789,2.164542933051936E-4,0.0
-0.06771264287384067,0.09784377787635062,2.1484496770441145E-4,0.0
-0.06771747085064302,0.09784860585315297,2.0492079316625515E-4,0.0
-0.06772390815304614,0.09784377787635062,2.3710730518189732E-4,0.0
-0.06783414695669972,0.09781668756207079,2.2342803757524938E-4,0.0
-0.06780196044468408,0.09785343382995532,1.756847114187135E-4,0.0
-0.06766731353608531,0.09783626769021364,2.1028521183552882E-4,0.0
-0.06756780356977028,0.0978424367716833,2.199411654402215E-4,0.0
-0.06770245047836905,0.09777940485231934,2.9665235241083533E-4,0.0
-0.06771425219944145,0.09781320068993576,2.733171311994947E-4,0.0
-0.06770218225743559,0.09788669322570481,2.719760265321763E-4,0.0
-0.06767428728035536,0.09791056488878308,2.601743054597742E-4,0.0
-0.06772176238557844,0.09785584781835649,2.3227932837955099E-4,0.0
-0.06780973885175452,0.09781025025966766,2.3710730518189732E-4,0.0
-0.06778264853747469,0.09787891481863437,2.440810494519531E-4,0.0
-0.06765685291968022,0.09784270499261677,2.1913650263983043E-4,0.0
-0.0676563164778133,0.09783036682967744,2.183318398394394E-4,0.0
-0.06770861955983871,0.09780300829446414,2.0679833970050092E-4,0.0
-0.06771773907157648,0.0978284892831432,2.1001699090206514E-4,0.0
-0.06769038053636318,0.0979022500398457,2.27987793444132E-4,0.0
-0.06772739502518117,0.09787811015583398,2.0599367690010988E-4,0.0
-0.06774482938585631,0.09782687995754241,2.2771957251066833E-4,0.0
-0.06786016438724571,0.09784270499261677,2.1108987463591987E-4,0.0
-0.06787920807352163,0.09782875750407666,2.2584202597642253E-4,0.0
-0.06777084681640229,0.09782661173660895,2.2289159570832202E-4,0.0
-0.06788564537592476,0.09786148045795923,2.250373631760315E-4,0.0
-0.0678912780155275,0.09781856510860504,1.7407538581793138E-4,0.0
-0.0678483626661733,0.09782419774820778,2.3818018891575205E-4,0.0
-0.06788323138752358,0.09787006352783006,2.212822701075399E-4,0.0
-0.06797523116770163,0.09783707235301403,1.789033626202777E-4,0.0
-0.06791917299260772,0.09784941051595336,1.6736986248133928E-4,0.0
-0.0678151032704238,0.09788079236516861,2.282560143775957E-4,0.0
-0.0678269049914962,0.09788964365597291,1.9848349076312673E-4,0.0
-0.06783146474736508,0.09786255334169308,2.086758862347467E-4,0.0
-0.06787438009671928,0.09786469910916079,1.703202927494398E-4,0.0
-0.0679414353300852,0.09785262916715493,1.756847114187135E-4,0.0
-0.06787652586418699,0.09787676905116666,1.845360022230151E-4,0.0
-0.06786606524778191,0.09783304903901208,1.43766420336535E-4,0.0
-0.0679591379116938,0.09778074595698666,1.1667610605670287E-4,0.0
-0.067983546016639,0.09778879258499057,1.1613966418977549E-4,0.0
-0.0679687938652985,0.09789286230717448,1.1694432699016655E-4,0.0
-0.06800446724944917,0.09788803433037213,1.3303758299798763E-4,0.0
-0.06811524249496967,0.09785665248115688,1.370608969999429E-4,0.0
-0.06804979658720453,0.09786148045795923,1.1989475725826708E-4,0.0
-0.06793955778355096,0.09785853002769113,1.0997058272011075E-4,0.0
-0.06797362184210085,0.09781078670153459,9.709597791385388E-5,0.0
-0.06804309106386794,0.09785584781835649,7.02738845674854E-5,0.0
-0.06791944121354118,0.09782419774820778,6.383658216435697E-5,0.0
-0.06795082306275643,0.09789205764437409,1.402795482015071E-4,0.0
-0.06802324271479163,0.09787381862089856,1.0889769898625601E-4,0.0
-0.06801868295892274,0.09787998770236822,7.402897763597699E-5,0.0
-0.06799293374931023,0.09789205764437409,1.1292101298821127E-4,0.0
-0.0680168054123885,0.09785531137648956,1.3571979233262447E-4,0.0
-0.06796637987689733,0.09783573124834671,9.468198951268071E-5,0.0
-0.06800956344718498,0.09784458253915101,9.360910577882597E-5,0.0
-0.06799561595864487,0.09790171359797878,1.2418629219368603E-4,0.0
-0.06798220491197168,0.09785611603928995,9.307266391189861E-5,0.0
-0.06803853130799906,0.09783465836461286,1.3303758299798763E-4,0.0
-0.06811095096003425,0.09779952142232912,1.3384224579837868E-4,0.0
-0.06813133575097749,0.09781856510860504,1.0809303618586496E-4,0.0
-0.06808225132015364,0.09785879824862459,9.226800111150755E-5,0.0
-0.06809110261095794,0.09786523555102772,1.3598801326608815E-4,0.0
-0.06820724227514771,0.09787086819063046,1.3196469926413288E-4,0.0
-0.06818229772833559,0.09785638426022342,1.3437868766530604E-4,0.0
-0.0681452832395176,0.0978373405739475,1.3276936206452395E-4,0.0
-0.06810639120416537,0.0978402910042156,1.2767316432871393E-4,0.0
-0.0680374584242652,0.09786201689982615,1.5905501354396504E-4,0.0
-0.06809458948309297,0.09785611603928995,1.563728042093282E-4,0.0
-0.06812838532070939,0.09785853002769113,1.0246039658312758E-4,0.0
-0.06810478187856459,0.09783787701581442,1.515448274069819E-4,0.0
-0.06802646136599319,0.09787220929529777,2.2879245624452308E-4,0.0
-0.06812007047177202,0.09786925886502967,1.7702581608603193E-4,0.0
-0.06819222190287375,0.09788615678383789,1.6495587408016612E-4,0.0
-0.06819007613540604,0.09788776610943867,1.5583636234240084E-4,0.0
-0.06813723661151369,0.09790198181891224,1.5851857167703767E-4,0.0
-0.06815923072805771,0.09787462328369895,2.1538140957133882E-4,0.0
-0.06819544055407531,0.09789527629557565,2.2369625850871306E-4,0.0
-0.06820938804261542,0.097900104272378,1.687109671486577E-4,0.0
-0.06817210533286397,0.09790332292357956,1.5315415300776397E-4,0.0
-0.06820375540301268,0.09791539286558543,2.2879245624452308E-4,0.0
-0.06822896817075827,0.0978963491793095,1.7997624635413245E-4,0.0
-0.06823969700809682,0.09786201689982615,2.022385838316183E-4,0.0
-0.06826946953171129,0.09787998770236822,2.073347815674283E-4,0.0
-0.06829307297385609,0.09787006352783006,1.7943980448720508E-4,0.0
-0.06830460647399503,0.09791941617958738,1.708567346163672E-4,0.0
-0.06831613997413397,0.09794784759853453,1.9526483956156248E-4,0.0
-0.06837890367256447,0.09797091459881241,2.092123281016741E-4,0.0
-0.0684236965684529,0.09799720025029185,2.1108987463591987E-4,0.0
-0.06826249578744123,0.09796850061041124,1.8319489755569667E-4,0.0
-0.06818068840273481,0.09792638992385744,1.351833504656971E-4,0.0
-0.06826061824090698,0.09790627335384766,1.9258263022692564E-4,0.0
-0.06833116034640793,0.09787971948143476,2.1672251423865727E-4,0.0
