1.6080325076618798,-0.2085468719657507,1.4726616707636917,0.0
1.9187374912187447,-0.0605894995438456,1.6929206780100676,0.0
1.6871415897776592,-0.1912991930603019,1.5587444971495268,0.0
1.4512216986682056,-0.30442861371381447,1.4197781586382578,0.0
1.5561937160722872,-0.23943278067502746,1.4443555109924686,0.0
1.8918968906279674,-0.07605565500922859,1.6675566336580079,0.0
1.7523165943999999,-0.16084512005390167,1.5981877265200288,0.0
1.4662101526510896,-0.30201811218477637,1.428661635954575,0.0
1.5154115278019342,-0.26377329394498994,1.4259574325033941,0.0
1.8476278302225864,-0.09994072913416971,1.6311088956724282,0.0
1.8114456309611358,-0.1325000682473264,1.632964984531997,0.0
1.4898712622965888,-0.29595444154196276,1.4406556714362706,0.0
1.4860657436926061,-0.2846660953362102,1.4163586099575294,0.0
1.7912086297522343,-0.13127429858139736,1.5885545716946805,0.0
1.8662675757727116,-0.10504550993985057,1.666975398895192,0.0
1.5267038973216889,-0.28226417687704286,1.4610273195537709,0.0
1.4674573799916957,-0.29956630463198475,1.4137337999026536,0.0
1.7290677403292345,-0.16471849855405074,1.5448705011451842,0.0
1.903003114819898,-0.08553431457690175,1.6874790117119565,0.0
1.5735902575958083,-0.26314243830948336,1.4872770294281281,0.0
1.4571110257042676,-0.3104834330658237,1.4146149056690818,0.0
1.66369264289053,-0.20059090263735085,1.5012564362593217,0.0
1.915917148103374,-0.0784315560378499,1.6895931291095172,0.0
1.6296307301081099,-0.23804661489088713,1.5196743630974725,0.0
1.455486947952145,-0.31616193844818336,1.4186154208916928,0.0
1.6084133813873986,-0.22967812176682018,1.4695511125983134,0.0
1.9143206971073983,-0.07931480757174582,1.6835592309903182,0.0
1.6933353475732025,-0.2076153406638313,1.557872242673903,0.0
1.4614741756289213,-0.31847293001090643,1.4242327719012227,0.0
1.5590360533042018,-0.2573778340074818,1.4436122707858408,0.0
1.8882627652004675,-0.09410048652893145,1.659393061327107,0.0
1.7578003713846648,-0.1758923144212144,1.596898388492869,0.0
1.4761281581077763,-0.31576255747825593,1.4325374284431251,0.0
1.5197505378425762,-0.28066826232293396,1.4264037521366777,0.0
1.8428765646072107,-0.11845950704330291,1.6224732544986313,0.0
1.8177480182347319,-0.1446003192186736,1.6329400399851848,0.0
1.4999628066972264,-0.3068881996736765,1.4446012013675213,0.0
1.4918754091114295,-0.29764235587624976,1.4183455906326283,0.0
1.786975835201244,-0.14783694122277988,1.5807015992047309,0.0
1.867796703314388,-0.11732734648315268,1.6624507799685933,0.0
1.5344037156586308,-0.2917841424684694,1.462285543952649,0.0
1.4732748238175897,-0.3098005425692251,1.415360023422244,0.0
1.7238972453948551,-0.18046199446463518,1.5364193959736103,0.0
1.900451529079858,-0.098804813480951,1.6791225885298955,0.0
1.5782801006174207,-0.2724092033397202,1.4849252682835181,0.0
1.4630494371711535,-0.31896296965634463,1.4157905180204533,0.0
1.6613392724203198,-0.21297010337950031,1.4956811959363456,0.0
1.9134704367483184,-0.09066913612713053,1.681973508831681,0.0
1.6338053207165386,-0.24598649096327913,1.5169583579252193,0.0
1.461100275647673,-0.32287550841277934,1.419063886292444,0.0
1.6043718283619675,-0.24143236773399923,1.4622978821155883,0.0
1.9054474121865526,-0.09364343805830933,1.6699993216990616,0.0
1.6941673689088068,-0.21517970742937415,1.5520328047314649,0.0
1.4663818140485063,-0.322254040509944,1.423731466976579,0.0
1.5559568769880388,-0.2648939210050012,1.4372479244766145,0.0
1.8733794538235014,-0.10892344819586851,1.6402348447125965,0.0
1.7530220154550094,-0.18282797131871834,1.5855035585765311,0.0
1.4794267391475127,-0.3146556096858513,1.4300998365998072,0.0
1.5181286058579213,-0.2818621136977808,1.4214526619258716,0.0
1.830846051078564,-0.12805859781010126,1.6064728029337885,0.0
1.8131582216213014,-0.14945860498650132,1.6219099905383576,0.0
1.5022094252359182,-0.30430174521228615,1.4405011761785955,0.0
1.491069405206371,-0.2967486437259488,1.4134634332017222,0.0
1.7737702457630928,-0.15499870836719376,1.5637572781750295,0.0
1.8600118589415382,-0.12213815714575733,1.6482828138211745,0.0
1.5347470384534643,-0.2892569648333746,1.4557417578389356,0.0
1.472323980608461,-0.3083060155279655,1.4095723521199646,0.0
1.709195787810777,-0.1861624939635389,1.5177375397369313,0.0
1.8891044424896766,-0.10420302798784113,1.6617078079828989,0.0
1.5780647192078494,-0.26813161589284135,1.4777028832081416,0.0
1.4629772857400518,-0.3142170684596382,1.4104432654909211,0.0
1.6494659363586828,-0.21432837418656042,1.4797979569194264,0.0
1.8990363954349037,-0.0962760265202554,1.6614259077818285,0.0
1.629335150639433,-0.24175423285415565,1.5047100489986003,0.0
1.4598238122253193,-0.3162767370077058,1.4114834262708933,0.0
1.5929370335265438,-0.23964387054966338,1.4461705620492173,0.0
1.8863852186662218,-0.09879810795761441,1.6447055512315694,0.0
1.6854845208507205,-0.21231832651118357,1.5346397500800788,0.0
1.4643100755584328,-0.3163534481946764,1.413698126518503,0.0
1.5452344769518944,-0.26280045661931717,1.421025385978864,0.0
1.8517050566321678,-0.11575852224332359,1.612287564550348,0.0
1.7409386624024703,-0.1832868973358747,1.5643943028920058,0.0
1.4767123433008602,-0.3107664061506279,1.418573846647006,0.0
1.509560824580291,-0.28082624445274407,1.406390447186285,0.0
1.8022705974901436,-0.13921256532818857,1.5714994754194587,0.0
1.7919583072612653,-0.15621428563765116,1.5914733518926325,0.0
1.4973685738287656,-0.3011885048375732,1.4260467500742375,0.0
1.4843979459283285,-0.29519698562586133,1.399569857069237,0.0
1.742975800392127,-0.16734572259732755,1.526496830761055,0.0
1.827581802318311,-0.13749031871441825,1.6066452689940056,0.0
1.5255757600755406,-0.2877101347100895,1.4363582356403155,0.0
1.4681129119530811,-0.3056975669500312,1.397604870510682,0.0
1.6827647605853988,-0.1947965258117349,1.485118923797479,0.0
1.8565078206667687,-0.11983011601330233,1.6204790318583289,0.0
1.566242076902637,-0.2679006776691291,1.45558645791846,0.0
1.4589271496447502,-0.31197205924654714,1.3980455575043629,0.0
1.6252056211478259,-0.22062432415775346,1.449378484413443,0.0
1.8631833032588128,-0.11384932563892909,1.6178625366523907,0.0
1.613967432256631,-0.24504181683562004,1.479513642729955,0.0
1.456871772631618,-0.316242136507289,1.400237995414495,0.0
1.57333330194155,-0.24590039204363728,1.4208255613834335,0.0
1.8493441759758205,-0.11898280608449055,1.6012395443009786,0.0
1.6669021745803565,-0.2189187072418579,1.5076376804873564,0.0
1.4613711787904713,-0.31516281547103114,1.4036929492584407,0.0
1.5329346696060502,-0.2650092560063906,1.4041467790778612,0.0
1.8200917327513377,-0.13102243912487496,1.5759688408337642,0.0
1.7221387889550672,-0.190463953073496,1.5384458051259287,0.0
1.4732780424687912,-0.30976996538281026,1.408601392340826,0.0
1.5015439690999948,-0.28158933300844824,1.3946812623359277,0.0
1.7758132846132857,-0.15052371031328565,1.541704421246579,0.0
1.7736943392389226,-0.1639618473007497,1.567409374405071,0.0
1.4934482566652605,-0.3012550236290722,1.4162019689323866,0.0
1.4790662502129375,-0.29672584494660437,1.3909755219191935,0.0
1.7228053179747245,-0.17469390329049866,1.504235029725436,0.0
1.8152814585305999,-0.14192696117484108,1.589995186328314,0.0
1.523239019303205,-0.28778362724585854,1.4290805970526452,0.0
1.4648430305532252,-0.3071346947115296,1.3918043246035963,0.0
1.6681298217928198,-0.20016416313221014,1.4691385888026463,0.0
1.8426547458952363,-0.12593106936586732,1.603205335522334,0.0
1.5629437640838342,-0.26810291625296073,1.4477932986966726,0.0
1.4569948860400779,-0.31270001085996757,1.3937821857669574,0.0
1.6149011093260182,-0.224069890269028,1.4383838401298332,0.0
1.8505133510247886,-0.11901150572437116,1.6026037159685749,0.0
1.609300388014363,-0.24585935424081734,1.4705716932501427,0.0
1.4552898055660493,-0.31619948937886827,1.3963713224376824,0.0
1.5671105762851925,-0.24711301888382659,1.4143241541772071,0.0
1.8402815270759496,-0.12232591179918191,1.5903701591932962,0.0
1.6658110518230262,-0.21812048174386997,1.5026002231359747,0.0
1.4611638440089039,-0.3149474340614598,1.4008283496890486,0.0
1.528224173572561,-0.26701930368176746,1.3988362728162138,0.0
1.8101254475266275,-0.13658641416864564,1.564466722544041,0.0
1.7202346885484086,-0.1920480659065325,1.5326575973817822,0.0
1.4736291436706952,-0.31034422640135606,1.4058338887493478,0.0
1.497742473810014,-0.2842533033196096,1.3899812269188436,0.0
1.761277051124221,-0.15939163081546198,1.525971654173333,0.0
1.7683535240117938,-0.16850095015775565,1.5583405564237305,0.0
1.4940563135214227,-0.30123088374506046,1.413395036863689,0.0
1.4774183007977366,-0.2976141926782361,1.3882874117240205,0.0
1.7134588913272488,-0.17989417074849257,1.4940158121604696,0.0
1.8105776680204473,-0.145745890825497,1.5819646515804113,0.0
1.5239844052773006,-0.2873724445548587,1.425937047712451,0.0
1.4640461461599046,-0.3081418643166857,1.3892916308989085,0.0
1.6587048064118393,-0.2050369328304449,1.459003324389854,0.0
1.8350158137101904,-0.1314773418280294,1.5926127544179862,0.0
1.56093934904806,-0.2521628143981474,1.4077704438889556,0.0
1.8300446069293745,-0.12874792560910292,1.578393021630409,0.0
1.663908292521035,-0.22052105909836994,1.4970383938596719,0.0
1.4608119381441995,-0.31763608069849975,1.3980906186211848,0.0
1.5235938755981775,-0.2706636215047385,1.3939396314549006,0.0
1.8004995346664827,-0.14026828292230165,1.5538424913695443,0.0
1.717882927403799,-0.19239782600376917,1.5269206198359275,0.0
1.473043080931077,-0.311965621944144,1.4025286021862748,0.0
1.4951514595927549,-0.2866812392093228,1.387275414142062,0.0
1.7566027649167495,-0.16039853219968464,1.5210567737885445,0.0
1.7680544576709818,-0.1677987477539477,1.5554397470283206,0.0
1.494573711702074,-0.3025650146681088,1.4115019335153023,0.0
1.4754364163203735,-0.3009404004741192,1.3862210376526163,0.0
1.7050332671443542,-0.1855292243396311,1.4859356565398762,0.0
1.8073507019699457,-0.14933495513617456,1.5766962560053177,0.0
1.5251455336982649,-0.2895294773017737,1.4248046189313672,0.0
1.4633761302681123,-0.3118623568847605,1.3886242972164509,0.0
1.650583612988426,-0.2120383038566475,1.4516741873829588,0.0
1.8266357870859846,-0.14022885444508248,1.5827660957296008,0.0
1.5635190979861138,-0.2722340550701684,1.4419224789050196,0.0
1.4569447287255202,-0.31827256897360906,1.391293363725348,0.0
1.601177317044415,-0.23479363140983955,1.4249904960382576,0.0
1.8360213739897457,-0.13306547797506785,1.5847713154281753,0.0
1.6119697227441936,-0.24980407950926775,1.4668249150305883,0.0
1.4570450433546356,-0.3219378080293903,1.3948518508496106,0.0
1.5574312874592886,-0.2573646911817421,1.4048232322720566,0.0
1.8229391661809882,-0.13860504491389333,1.570566603012872,0.0
1.6649514037312751,-0.2258114487900077,1.4952520424428037,0.0
1.4631620899632083,-0.3230388549612588,1.39878718838539,0.0
1.5210154677647911,-0.2790575956174845,1.391518401088524,0.0
1.791081224808839,-0.1526952269906076,1.543948357575936,0.0
1.717542823260167,-0.20048361426396538,1.5239675073584924,0.0
1.4759846599083732,-0.31793219660904365,1.4035870019897225,0.0
1.4947121137037414,-0.2946321123399868,1.386843846660119,0.0
1.748336463968332,-0.17210208441043906,1.5126056686169707,0.0
1.7661594767760604,-0.17653872687086186,1.5508416355659527,0.0
1.497229903606165,-0.30834758977265236,1.4115094437014393,0.0
1.4759860010130406,-0.30810109473479924,1.3862848742347806,0.0
1.69786372159287,-0.19515138210670735,1.4785652135092273,0.0
1.8039464418824247,-0.15726597991776228,1.5706985677121361,0.0
1.5270912083496104,-0.2963087613950683,1.4233406690765225,0.0
1.463983382461474,-0.3202614271952423,1.3881178960940714,0.0
1.6449890607582405,-0.22166689892612684,1.4460954601878475,0.0
1.8252464026506428,-0.14673428496531069,1.5793014859320504,0.0
1.566253610402776,-0.2797080313811339,1.4414045442825012,0.0
1.4584550808018542,-0.3284671102126968,1.391473876413569,0.0
1.5956192428611806,-0.2471165057559616,1.4194544159715672,0.0
1.8279892299162424,-0.14501579344460885,1.5750225573805043,0.0
1.6127853826028566,-0.25921192875050647,1.4641571896263585,0.0
1.4591285835657815,-0.3328828314403095,1.3950074189910195,0.0
1.5531212452794605,-0.2704965198631906,1.400438088230859,0.0
1.8095911514271679,-0.15560435123495475,1.5558018452884967,0.0
1.6596969556447214,-0.23883679376087116,1.4863269908817998,0.0
1.465401198315763,-0.3334085444698983,1.398457544858163,0.0
1.519290002499819,-0.2911347795885538,1.389572458216245,0.0
1.7797413801838613,-0.1685486934839122,1.5315855183107279,0.0
1.7141216652538378,-0.21334078470954712,1.5169352909249414,0.0
1.4792762672038395,-0.3300571239062695,1.4038034562830277,0.0
1.4946689301334537,-0.30925444474869307,1.3860324783363913,0.0
1.735420016696455,-0.19226156976956962,1.4990610479189215,0.0
1.7588571618625117,-0.19511383117602243,1.5404571939059728,0.0
1.5003914237489013,-0.3231308547414368,1.411375065013774,0.0
1.4775435599736642,-0.3247297197258138,1.3868760331721346,0.0
1.682689122282162,-0.2187274657162983,1.4631803289866838,0.0
1.791704838479142,-0.18088310133017316,1.5559745795696474,0.0
1.5293321942486995,-0.3115734829394201,1.4223369863435014,0.0
1.4673382898972378,-0.3354094726335374,1.3902904856551273,0.0
1.6355106694115007,-0.24191087387929844,1.4365832730034915,0.0
1.8121322765508028,-0.1701615059568293,1.5640981869814619,0.0
1.5667865653975683,-0.29520503225386524,1.4382416830350975,0.0
1.4622697189175746,-0.34233332780996895,1.3934780232284096,0.0
1.5888780461404377,-0.2657219190266036,1.4126976624366834,0.0
1.8132901863205655,-0.16937535040084725,1.5586744914858928,0.0
1.6113992168187163,-0.2766146393554973,1.4590545545881455,0.0
1.4634606198621534,-0.34699581229636817,1.396776067826279,0.0
1.5489217101242196,-0.28944847457986767,1.395812350012344,0.0
1.7942915611614658,-0.18036489848672133,1.5393354939622277,0.0
1.6583432445935302,-0.2576299616849377,1.4813281573448367,0.0
1.470251437455587,-0.348503750384301,1.40046759253354,0.0
1.5179582855651719,-0.3099711310829081,1.3877571389385628,0.0
1.7612067772396536,-0.1976141867177709,1.5123572960325833,0.0
1.7049941068880685,-0.23829015949847215,1.5044469242628724,0.0
1.4832907299149904,-0.3462606187177442,1.4045633261875303,0.0
1.495611458493645,-0.3270420523932042,1.386127160325904,0.0
1.717863883717523,-0.21937253706127846,1.4810231901434885,0.0
1.7441154711384141,-0.22196730637160617,1.5223329689899647,0.0
1.5028373304411566,-0.34049923306694424,1.4099669051130896,0.0
1.480679867348655,-0.3411424268653902,1.3888884948359126,0.0
1.6704515421928814,-0.24417599966239925,1.450956964606877,0.0
1.7764728398886729,-0.21021037819509247,1.5383323476710735,0.0
1.5312244929342858,-0.33094144832389927,1.4206345880788074,0.0
1.471640285449062,-0.35263113410844016,1.393375294610893,0.0
1.6246412843038183,-0.2679658553559608,1.4261623532965604,0.0
1.794873600587082,-0.20141702311241905,1.5452948266619237,0.0
1.5675410708834017,-0.31806791640137627,1.4357909483660398,0.0
1.4682942293041026,-0.36113373769923895,1.3983344314497033,0.0
1.580969551917261,-0.2928562215395238,1.4056152886885749,0.0
1.791745339840095,-0.20526331129828826,1.5365929349175613,0.0
1.6093028020027642,-0.301743722169843,1.454412186671756,0.0
1.469495322644153,-0.3652562934465758,1.4022963228578953,0.0
1.5472517665924748,-0.31256563217230227,1.3958826238969115,0.0
1.7797542547886676,-0.21125536695186697,1.5255425006797911,0.0
1.656728018132212,-0.2819538452570254,1.4780859027011277,0.0
1.4771186980150577,-0.36702789271210345,1.4067772217723395,0.0
1.5202209973598715,-0.3317922451248462,1.3919652571636745,0.0
1.749797463392909,-0.2278306159771223,1.5026978555557555,0.0
1.7030237559108443,-0.2647595423173359,1.501623898938167,0.0
1.4906512487711012,-0.3662988682149491,1.4115807904697406,0.0
1.5001594126414552,-0.34943796389555504,1.3928600421977093,0.0
1.7102587473700936,-0.2485702632153348,1.476196822666743,0.0
1.7439553432411363,-0.24869257196099423,1.5226838019709352,0.0
1.5108740342705291,-0.36208779955956927,1.418370266958507,0.0
1.4867389782356,-0.3631773129912988,1.3976475176391028,0.0
1.6673399111437692,-0.2711083318124213,1.4512345732730119,0.0
1.775987628220037,-0.23570746013015031,1.538764719815817,0.0
1.5390589581798266,-0.3525479856190664,1.428702673757395,0.0
1.4790611540152017,-0.37347511928977006,1.4033826176384232,0.0
1.6245396285700355,-0.2933266810568191,1.429780921909919,0.0
1.7934917263378771,-0.2286615644289928,1.5455984527586046,0.0
1.5747656017262461,-0.33991558431572727,1.4431096247565298,0.0
1.4763054521447958,-0.38162259836466295,1.4087950478547868,0.0
1.584706405962277,-0.31629041627531246,1.4137278990421174,0.0
1.7938986174939415,-0.2314459659392793,1.5415276636514263,0.0
1.6177911898840893,-0.32474500831902126,1.4637331323305525,0.0
1.4789825652816968,-0.38768036814694024,1.4142903583395907,0.0
1.5522519412341047,-0.3379723236527829,1.4054229742792814,0.0
1.7795592581700395,-0.24011513472975907,1.5288705860222085,0.0
1.6645922559013673,-0.30734846679550015,1.487318067230948,0.0
1.486579386780189,-0.39038430337718766,1.41899388062881,0.0
1.5263825686433994,-0.35733224240925815,1.4031825248220593,0.0
1.749181359908743,-0.25647071081050765,1.5063392229484587,0.0
1.7099363458080703,-0.28975719687428436,1.5104607058120616,0.0
1.5000121593489837,-0.3892623352125091,1.423587432335309,0.0
1.5073388823674778,-0.3731057790643906,1.4051499253690154,0.0
1.7131764546843116,-0.27393833088139663,1.4836581925938357,0.0
1.7523702385866926,-0.2713757480830846,1.5328694919192185,0.0
1.5209462667639575,-0.3840993504642666,1.430115393413948,0.0
1.4945629828647355,-0.38622768357130094,1.4093698453151995,0.0
1.669439544610923,-0.2979382035658602,1.457511479557929,0.0
1.7809765375824615,-0.26221305277503165,1.545341228883413,0.0
1.5493629335597674,-0.376991495727479,1.4396417963077779,0.0
1.4879760131807345,-0.39821796395992803,1.4148651558000034,0.0
1.6234879342899244,-0.32489789425109555,1.4320760884375676,0.0
1.7903417396952797,-0.2625665679653368,1.5436439268164548,0.0
1.7158667106469525,-0.3476341781180117,1.4606657577354618,0.0
1.568137057797558,-0.4139974014755966,1.423023363712235,0.0
1.495616018249514,-0.4227717128719941,1.4169106086385976,0.0
1.5674386104868185,-0.396652090150367,1.388737754671306,0.0
1.6939114861382825,-0.36314056672341427,1.4323268750103562,0.0
1.5894238757400363,-0.41527627888635144,1.4183573923537007,0.0
1.497978508231462,-0.42607136679546437,1.4172429343751591,0.0
1.5447878890976774,-0.4107800913786997,1.3860158486385166,0.0
1.660837431053809,-0.3824809053517467,1.3988775788399672,0.0
1.605582845876556,-0.4196142160432596,1.40865047677165,0.0
1.5046692794167138,-0.4307249999910593,1.4160879750356645,0.0
1.5300298368966385,-0.4188615881039605,1.390277074608454,0.0
1.632119283928786,-0.3967068072207936,1.3754868358953996,0.0
1.6149778205129888,-0.4216706659401257,1.393902885187016,0.0
1.5148952025050166,-0.43597220611240933,1.4127802744841902,0.0
1.5190861545903867,-0.42245762615890814,1.3957882101283323,0.0
1.6069298514044106,-0.41119529738370153,1.360298020875218,0.0
1.616361035866861,-0.424427172473332,1.3739638774351928,0.0
1.5277242097525847,-0.4413690795146321,1.4069091864716037,0.0
1.511070640214758,-0.422606220556047,1.4000440716796008,0.0
1.5904736924736131,-0.424977293607866,1.3573907741774052,0.0
1.6184067569263885,-0.4318252422601273,1.3586599956345553,0.0
1.544003879309163,-0.450177723190513,1.4009664834697824,0.0
1.5080260643990118,-0.4262382002160788,1.4054583794424986,0.0
1.5789072011598588,-0.43540652816373443,1.3627082541833229,0.0
1.6250924319139042,-0.44251733333079024,1.3531681720218864,0.0
1.5609079671988448,-0.45870527132812394,1.3940007858277303,0.0
1.5077532837096792,-0.4301459109957112,1.4092142771737906,0.0
1.565687932454101,-0.4398241269378813,1.3697951876873002,0.0
1.627093628298477,-0.45326414147187966,1.349969637390332,0.0
1.5773271116408243,-0.466681625447467,1.3865356608075692,0.0
1.5106401456165488,-0.43626456692988475,1.412088264475854,0.0
1.552289760385723,-0.4405265975626227,1.3789750491350947,0.0
1.625208035136227,-0.462405110884322,1.3504953504199209,0.0
1.593386035369162,-0.47580676982483505,1.3812589503835382,0.0
1.5173759779186222,-0.4461055929786674,1.4149587649057822,0.0
1.5400840985875248,-0.441576682517133,1.3901679086885343,0.0
1.6198918962349769,-0.47088437925390947,1.3547876900181401,0.0
1.607941848986369,-0.4860262556107349,1.37733300058043,0.0
1.5274280938420408,-0.45862695081555255,1.417311062492259,0.0
1.529771003695846,-0.44433104328287165,1.4024108531964843,0.0
1.6112911237825305,-0.4767900677669129,1.3619290723716106,0.0
1.619913890351521,-0.4962063129194156,1.3746317475595173,0.0
1.5403107452763016,-0.4726028707746114,1.4184391997384072,0.0
1.5222205844188434,-0.449258530051533,1.414428223899391,0.0
1.6004737735359398,-0.479492661892493,1.372426435044579,0.0
1.6293158387322235,-0.5042808359004064,1.3743584304283178,0.0
1.555620527937475,-0.4879622743084758,1.419023384931491,0.0
1.5183134100810778,-0.45748808473206576,1.4261811287619028,0.0
1.588303785121892,-0.4822352209371592,1.3850416702081765,0.0
1.6353537601654244,-0.5124503090918433,1.376107767356368,0.0
1.5724138405816364,-0.503777921650162,1.4189399682211838,0.0
1.5182361624522402,-0.46818232157019635,1.4365518911542763,0.0
1.5752765626044944,-0.484917430271796,1.3990736483423292,0.0
1.6376934513680281,-0.5203826749780982,1.3800170874616013,0.0
1.5895719336953082,-0.5193915986289499,1.4184960625763015,0.0
1.5222179022095088,-0.4818586387465762,1.4458773965689415,0.0
1.562759764523478,-0.4885191009663464,1.4142206208968902,0.0
1.6364301307714142,-0.526814344741624,1.3860794169997475,0.0
1.6061638124184383,-0.5337781648371416,1.417623539879744,0.0
1.5298619305922903,-0.4969999786615346,1.452991420387199,0.0
1.5513633252815395,-0.4930241397648024,1.4295631265119464,0.0
1.6316775240513712,-0.5312657393533873,1.3943658345181744,0.0
1.6213129307404675,-0.5459293777858469,1.4169913431395702,0.0
1.5408954669112525,-0.5131983772752735,1.4579934725753632,0.0
1.542081003437162,-0.49944159381885456,1.4449037545804684,0.0
1.6238553969687697,-0.5357557577795694,1.4051874762997003,0.0
1.6342612963034269,-0.5574298867499693,1.4178483090219867,0.0
1.5551900333392659,-0.5320003964901443,1.4625977531192007,0.0
1.535875443920546,-0.5086627612904026,1.4599469256337791,0.0
1.6139261262328777,-0.5404388952778453,1.4183659754235716,0.0
1.6442959778661703,-0.5676458856637342,1.4200777614209368,0.0
1.5714139129416838,-0.5505175650736767,1.465365793152546,0.0
1.5328858533961598,-0.5199114107980025,1.4737576214978243,0.0
1.6021246733814087,-0.5446089261304052,1.4328794101332916,0.0
1.6504411876727567,-0.5757713706220831,1.423178395411777,0.0
1.5885585950086825,-0.5678119144215482,1.4665583034227254,0.0
1.533589396904635,-0.5328369775816175,1.4855657798726298,0.0
1.6236193625473216,-0.5980152008551598,1.4677803179955862,0.0
1.5470127817407586,-0.5652391392277645,1.5038466458137807,0.0
1.5672749957174057,-0.5606758964867469,1.4813002623677565,0.0
1.6480727968302724,-0.5935552231735257,1.4458438689522586,0.0
1.63950796598291,-0.6098418664743741,1.46810352422041,0.0
1.5591578256079943,-0.5831077495941817,1.5096289526973907,0.0
1.5587356458587225,-0.568348624509409,1.4969820674636445,0.0
1.6406460274035963,-0.5990465103443277,1.4571920284261737,0.0
1.652736622421339,-0.6188269995244741,1.4690677784762118,0.0
1.5739115862740978,-0.6013658167559881,1.5136324183502696,0.0
1.5530979100582492,-0.5775963458533699,1.511425228288797,0.0
1.6309168494840682,-0.6039849941712612,1.4700178170225402,0.0
1.6630086795101977,-0.6249499469935831,1.4709260131032482,0.0
1.5908462513501944,-0.6187744282215152,1.5158189553998656,0.0
1.5512002469539936,-0.5896636056499011,1.5250336855690105,0.0
1.619879826292971,-0.6096337270300063,1.4846455138499155,0.0
1.6697874271616253,-0.6299831128100292,1.4746212929035774,0.0
1.6088720391836215,-0.6348164540310447,1.5171576460787828,0.0
1.552902913439621,-0.6037154321331302,1.5369789048408156,0.0
1.6080901751625745,-0.6160943646543461,1.5003919601907683,0.0
1.6728816238500623,-0.6361897452103787,1.4802678799948548,0.0
1.6272867473705708,-0.6491287230406669,1.5180467984732149,0.0
1.5585307250655562,-0.6196643852787478,1.5469497498213947,0.0
1.5967337008397222,-0.622856482607899,1.5165782888625012,0.0
1.6721432116202368,-0.6420428624204233,1.4875208422566466,0.0
1.6447634869531975,-0.6593763720245804,1.5179569444605046,0.0
1.567711927618018,-0.6364920302023923,1.554535842482548,0.0
1.586586366484924,-0.6301705992425203,1.5325092712055768,0.0
1.667844166498681,-0.6476521668019494,1.4966049488311945,0.0
1.6606966150637406,-0.6655135352031631,1.5180159530658666,0.0
1.5803333318630852,-0.6536597792696689,1.5597530078593502,0.0
1.578600088191043,-0.6385712788786029,1.5476146695154511,0.0
1.6605445337944666,-0.6552353090328347,1.507245273261699,0.0
1.67421414544751,-0.6703235412029673,1.51840031366352,0.0
1.5956887120829477,-0.670373698517525,1.563074387678431,0.0
1.5736058144099492,-0.6483846781712387,1.5616799070453533,0.0
1.6509867490514218,-0.6629072323926963,1.519773604842854,0.0
1.684664569457122,-0.6741051881438719,1.520040752892584,0.0
1.613055749303788,-0.685511283339415,1.564625777557585,0.0
1.572117456450159,-0.6599680674038013,1.5741838305215634,0.0
1.6400889325247923,-0.6708623970582959,1.5336172918817152,0.0
1.691503666818579,-0.6773131105080975,1.5228353467983422,0.0
1.6314023293736375,-0.6976061698920929,1.564813800431943,0.0
1.574298092639219,-0.6728745905011405,1.584507386029647,0.0
1.6284317825355272,-0.6781614933206431,1.5480220971133825,0.0
1.694446318679609,-0.6806529975715873,1.5272848638635712,0.0
1.6500310778654907,-0.705670500477612,1.5641247408538748,0.0
1.5803808069683083,-0.6873684450827175,1.5929153076309333,0.0
1.6173759838790875,-0.6860399467992719,1.5629721955027813,0.0
1.6937280230197933,-0.6865452750379175,1.533541385357545,0.0
1.667762627334908,-0.7107876194462323,1.563088335166971,0.0
1.5900949645155624,-0.7030888739930241,1.599497985779999,0.0
1.607595307540334,-0.6947691970788475,1.578108975661871,0.0
1.6893369781180594,-0.6957452530557219,1.5418763508649291,0.0
1.6835106830013613,-0.7141449408703971,1.561999626398042,0.0
1.60271019967916,-0.7178222498681843,1.60339630882696,0.0
1.599559944815629,-0.7029740754335017,1.5920030882362233,0.0
1.6815328218380001,-0.704784834955315,1.5514352084917078,0.0
1.6960475976523872,-0.7152296263253243,1.5605686677180133,0.0
1.6173985144374985,-0.7301609492493807,1.6044262772114606,0.0
1.5939117483987508,-0.7104893577682206,1.603721392598318,0.0
1.6708769405933548,-0.7132327214756872,1.5618196501516879,0.0
1.7047663873155579,-0.7156834561447448,1.5593622099592936,0.0
1.6330993632196622,-0.7391412543226783,1.602832240203886,0.0
1.5909556854910476,-0.7178179583332489,1.613055749303788,0.0
1.6581884811149217,-0.721753832310895,1.5726171520492018,0.0
1.7103327763477296,-0.7196440064482696,1.560216761853309,0.0
1.6507955075258622,-0.74785548422998,1.6012797774409981,0.0
1.5926902702677572,-0.7286165331144968,1.6217174079081307,0.0
1.6458259100706472,-0.7298034107450736,1.5854804915762533,0.0
1.7122269525798501,-0.7242056398636865,1.5632205680871687,0.0
1.667957623953536,-0.7528870407208254,1.5983465133126393,0.0
1.5975622353031915,-0.739320962348099,1.6276585015843514,0.0
1.6332643190937424,-0.7355449480467973,1.597842526178661,0.0
1.7098687541328375,-0.7297309910930384,1.5673152288574252,0.0
1.684331975499627,-0.7548783129308597,1.5950270110400928,0.0
1.6062520571055479,-0.7509923280468378,1.6314908422816805,0.0
1.6224126365676685,-0.7411150921720375,1.6103290152941963,0.0
1.7042972689029299,-0.7370080932388416,1.5735792605375363,0.0
1.69902994621157,-0.7550019627811865,1.5918740739672272,0.0
1.618210419203093,-0.7625995889424788,1.6331728557554313,0.0
1.6137260334165138,-0.7473485466657337,1.622331365624829,0.0
1.6964225705173697,-0.7462678845248085,1.5823463299687301,0.0
1.7131394401954936,-0.7551569944807285,1.5912834514717402,0.0
1.63334156672258,-0.7739560632653312,1.6335636536554878,0.0
1.6085668037613399,-0.7549102312219419,1.6334378580376934,0.0
1.6865512355031056,-0.755788386558102,1.5930770448538119,0.0
1.725807783103917,-0.756068945654505,1.5939391069339641,0.0
1.6508818746664375,-0.7837742905347693,1.633208529139582,0.0
1.6070103176844497,-0.7645130770818087,1.643603967857834,0.0
1.6747996717452611,-0.7641316669144234,1.604740095703613,0.0
1.7357807738519637,-0.7565833934048883,1.5988800047492986,0.0
1.6699955666059931,-0.7891145693200313,1.632207260394962,0.0
1.6091963182921791,-0.7747982769964071,1.6514719607200576,0.0
1.662290920292249,-0.771542611306025,1.6165957291836417,0.0
1.741844980936644,-0.7585840533475939,1.6052215522791804,0.0
1.691079073080906,-0.7916516711296643,1.6321093597542478,0.0
1.615333749691695,-0.7864396019505979,1.6574184188149474,0.0
1.6503365815087059,-0.7797107433927946,1.6288207028890496,0.0
1.7424420407345342,-0.7655755001992584,1.6119187607668355,0.0
1.71369438930683,-0.7926937094561707,1.63447372728273,0.0
1.6252233237294345,-0.7987498699128472,1.661551703399623,0.0
1.640131579653213,-0.7878268406184722,1.6413871218427565,0.0
1.7367112322701492,-0.7742768555017537,1.6177284261856588,0.0
1.7368922814002372,-0.7912954737300245,1.639145867722734,0.0
1.6387695537530844,-0.81042928223959,1.6641228692678058,0.0
1.6326356092257035,-0.7960027511123122,1.6536584977696536,0.0
1.7280758593172858,-0.7824624219491985,1.625607684327088,0.0
1.7607132507220804,-0.7878375694558107,1.6479091820608596,0.0
1.6557490117250695,-0.8192204915547957,1.665765186043404,0.0
1.6279999468326507,-0.8046807711935964,1.6646982031700854,0.0
1.7155861515505495,-0.7916707148159402,1.6337964694257343,0.0
1.7819010951401109,-0.7862499697506391,1.6586044917827238,0.0
1.6766619296862995,-0.8250325709620203,1.6680850288969313,0.0
1.626661524374667,-0.8140030579570602,1.674047580247829,0.0
1.7003544211810138,-0.8019325795093273,1.6416861881835685,0.0
1.796423917582502,-0.7860909147370951,1.6677669188698434,0.0
1.7021828832844357,-0.8280505929053537,1.6727434900693285,0.0
1.6295430218628673,-0.8248268455060537,1.6817870952829237,0.0
1.685544334118883,-0.8127375915929784,1.6509805799699522,0.0
1.803047633534388,-0.7874210223461416,1.6744635909156311,0.0
1.7316308595694136,-0.8269034119729295,1.6801925218334821,0.0
1.6358352167409917,-0.8347555798000789,1.6867537423078707,0.0
1.6716126706138457,-0.8221926477185069,1.6605182481429872,0.0
1.799776679250798,-0.7908859003646255,1.6768893810378767,0.0
1.7641429917982805,-0.8216596927237144,1.690865032776002,0.0
1.6464149232405334,-0.8442774229380396,1.6900772678944191,0.0
1.6604206157232064,-0.8311796583151411,1.6707551682895623,0.0
1.7881476924595467,-0.7982995269655617,1.676240554599828,0.0
1.796863531692449,-0.8148219364669248,1.703690553151435,0.0
1.6617976619956092,-0.8531281773004743,1.6929083398471283,0.0
1.6525759580821942,-0.840504895508873,1.6812841810326793,0.0
1.7708423460534033,-0.8093301128542558,1.674999764561625,0.0
1.825930902472842,-0.8076419302990354,1.7163143713849034,0.0
1.681747398584771,-0.8589812945105189,1.696049743419855,0.0
1.6481908140409964,-0.8498126983419297,1.6911075044998531,0.0
1.7501517832460145,-0.8221899655091722,1.674165597458553,0.0
1.846855890376078,-0.8025706771100374,1.725636658148367,0.0
1.7067155488390384,-0.8604752851099116,1.700718933429591,0.0
1.6471616503192963,-0.85849661928375,1.6989889084087502,0.0
1.7292090927611699,-0.8346327346125525,1.675210317994394,0.0
1.8610233200816297,-0.7977928576222488,1.7333388904737104,0.0
1.7383884177670976,-0.8570163079519639,1.7097260605962348,0.0
1.650051999098301,-0.8671177765271397,1.7046961134309904,0.0
1.70947634690718,-0.8472967859860403,1.6780872557267255,0.0
1.8594021927597753,-0.8002980411407996,1.7306655324298776,0.0
1.7733547715371576,-0.8506946087711583,1.720629509762467,0.0
1.6568334289590632,-0.8749699443542891,1.7081159303326523,0.0
1.6934498779117915,-0.8588069509037675,1.683811358667774,0.0
1.848579746315449,-0.8084511528552953,1.724695470892843,0.0
1.8096563291139995,-0.8423057308561481,1.7336095253955752,0.0
1.6683618329002659,-0.8827059725172486,1.7106007290602598,0.0
1.6807890451895053,-0.8687507055700666,1.6911219884302602,0.0
1.8268388303326166,-0.8223919358720704,1.7133701101982723,0.0
1.8420381059692033,-0.8345182042739635,1.7447358661575156,0.0
1.6846978288528716,-0.88868273957762,1.7122046902423727,0.0
1.6721407976318357,-0.876669392188715,1.6986147402065683,0.0
1.799969798322892,-0.838273833784322,1.7011397720741954,0.0
1.8664285083327898,-0.8284282479796705,1.7509317697205269,0.0
1.7057432479552326,-0.8913096953999633,1.7138386921690334,0.0
1.667593111704959,-0.8839607100439919,1.7058151311654008,0.0
1.7725436714343634,-0.8540835802654719,1.691847257834346,0.0
1.8797708904470074,-0.8276037368302032,1.7512061597354602,0.0
1.7310512341321984,-0.8921154310840883,1.7164935429684571,0.0
1.6668107112420454,-0.8911082614789321,1.711544330304185,0.0
1.747402786898945,-0.8704517627300933,1.6873298808729507,0.0
1.8801262831838468,-0.8335153262037428,1.7442063980348583,0.0
1.7595556091732512,-0.8920931687466108,1.720648553448743,0.0
1.6698405349064511,-0.898686575733015,1.7157688100062383,0.0
1.7267301948940985,-0.8833987871883855,1.6882053539997761,0.0
1.869894191014074,-0.8428590706418837,1.7328893521892252,0.0
1.7894402491379082,-0.8894530700985277,1.7261191876076682,0.0
1.6770776721331682,-0.9067951627725557,1.7185693047725326,0.0
1.7105618370249076,-0.8934090606461836,1.6931776336643258,0.0
1.850480628070906,-0.855597419213941,1.718300547397202,0.0
1.8168663760264367,-0.8865536018077853,1.729746607511831,0.0
1.6880200133347527,-0.9141481714425291,1.71931871406063,0.0
1.698421352913541,-0.901191222809699,1.700064742572873,0.0
1.8269294890081273,-0.8704603457999641,1.7049895471321996,0.0
1.8422668984254478,-0.8837523023786906,1.7340853493315398,0.0
1.7033292595540594,-0.9214102532160584,1.7194340490620195,0.0
1.6902516115011705,-0.9076945075624594,1.7078522691550575,0.0
1.8010488511382163,-0.8865458234007149,1.6940981679079732,0.0
1.8585943113081826,-0.8843914728631346,1.73320799865818,0.0
1.7226553824729183,-0.9279189023874882,1.7195190750979275,0.0
1.686274967941638,-0.914396275805983,1.7154201227927355,0.0
1.777896556603498,-0.9007878185257695,1.6894574093171846,0.0
1.8660149116533888,-0.8882034287695204,1.7285554383463189,0.0
1.744825720170226,-0.9327943542950575,1.7193428539446418,0.0
1.6858302576339552,-0.9213008190752052,1.7215929593554686,0.0
1.7572242328195848,-0.9126249447613889,1.6898500847637754,0.0
1.864008887292014,-0.894558119125142,1.7202143037574653,0.0
1.7688864790065861,-0.9358957929486981,1.719685372076675,0.0
1.6892200337910692,-0.9291441356115503,1.7259346516054452,0.0
1.7399272012623788,-0.9220137503163517,1.694320791282748,0.0
1.8536504630625799,-0.9039050822144845,1.7097298156893033,0.0
1.7924199154877563,-0.9381923005810142,1.719329711118902,0.0
1.6960221166637082,-0.9375110194100165,1.72832476834354,0.0
1.7258034915689815,-0.9293941175215384,1.7018572630712108,0.0
1.8381550715154495,-0.9156386751697868,1.7000553548402018,0.0
1.8141385691331111,-0.9405137527601424,1.7184904478180942,0.0
1.7068810411549855,-0.9473729666916093,1.7294547831362226,0.0
1.7154211956764693,-0.9351383370325966,1.7109405649829583,0.0
1.8200107300294317,-0.9276616785122965,1.6928308239973573,0.0
1.8313720323290863,-0.9425468674357971,1.7157390374826238,0.0
1.720984634278373,-0.9566450961405154,1.7286340270798237,0.0
1.707941050284034,-0.9398611712290252,1.7197301649725634,0.0
1.801306611455275,-0.9386222587373565,1.689883344159525,0.0
1.842560868568524,-0.9454962248201639,1.7108920169940014,0.0
1.7381759867877944,-0.9657664854248149,1.726929483047662,0.0
1.7038638238744526,-0.9451848203164126,1.7274712893332587,0.0
1.7836300472772177,-0.9479461548264212,1.6913124252930194,0.0
1.8459903414237906,-0.949539118950262,1.7033635918335428,0.0
1.7566918142666594,-0.9736894635783987,1.7237591116141213,0.0
1.7033702973568794,-0.9517173411509205,1.7337970118280663,0.0
1.767240138916986,-0.9558787889336097,1.69640942769163,0.0
1.8442705087984215,-0.9563473709043707,1.6963818009354832,0.0
1.7762925954213853,-0.9807458198959613,1.7204001808643556,0.0
1.7064894385921285,-0.9595668267687353,1.7382296309744871,0.0
1.7531738285033498,-0.9609677447042161,1.7046188658021528,0.0
1.8402485359011336,-0.9638752596229625,1.6930754414886762,0.0
1.7954344505589546,-0.9863749726265636,1.7164994438289933,0.0
1.713331754604787,-0.9688885770903322,1.7407278407487679,0.0
1.740619211270715,-0.963857020599487,1.713782365773006,0.0
1.83044693832957,-0.9714946116798654,1.6896478461799438,0.0
1.8121808245397597,-0.9906490732013075,1.7116567148753064,0.0
1.7236244647055226,-0.979263094575774,1.7414480139551178,0.0
1.7304646349507133,-0.9664348919910064,1.7236263422520568,0.0
1.8186538003270387,-0.9801629758075447,1.6899109709156717,0.0
1.825787940715306,-0.9959386582301447,1.7066109426749876,0.0
1.7370060070760258,-0.9904613185478829,1.7405084360251946,0.0
1.7230628100708496,-0.9700019621851399,1.7332297245537907,0.0
1.805831230381874,-0.9875846490364848,1.693829678753576,0.0
1.8352566761084408,-1.0014296771800133,1.7014436663918098,0.0
1.7527052465325887,-1.0015042425995162,1.7380260512859882,0.0
1.7186532579247067,-0.9740904538739269,1.741073309311069,0.0
1.7922723939743512,-0.9918158342618745,1.7001841008882643,0.0
1.8406607914758673,-1.0065492101370348,1.697091513525428,0.0
1.7698729955998656,-1.011727751699418,1.7340569179125926,0.0
1.7180312535800044,-0.9803413427282981,1.7475301918423403,0.0
1.7786848579269479,-0.9940074675092062,1.7085045824652412,0.0
1.8414794017647984,-1.012425930789224,1.6933777264806897,0.0
1.7871005579353045,-1.0207976425644925,1.728623834684352,0.0
1.7211667562921948,-0.988126187101148,1.7518818082668552,0.0
1.7655699271643073,-0.9946428829005817,1.718067463406022,0.0
1.8388704167449972,-1.019272538336818,1.6920492281972441,0.0
1.8037436668567262,-1.0299493408142735,1.7228211430097988,0.0
1.7278982970593328,-0.9978438315205373,1.7544859653098541,0.0
1.7535260025889876,-0.9947399788784955,1.728236255435497,0.0
1.833213100816381,-1.0250999063372501,1.6936580173561593,0.0
1.8183453462535555,-1.0385426030805829,1.7165753503531636,0.0
1.7380772814842798,-1.0088384758041473,1.7551983601091337,0.0
1.7432190767787785,-0.995397388386415,1.7383760796041583,0.0
1.825230309394635,-1.0282525751891822,1.6983170149704236,0.0
1.8311748899429905,-1.0460581536362354,1.711655373770639,0.0
1.7509529591742705,-1.020517351689023,1.7540238206414962,0.0
1.7354978007671595,-0.997424870422467,1.7476369437738588,0.0
1.8147071975120541,-1.0286878977641938,1.7050329989234208,0.0
1.8410741199343348,-1.0528369012876633,1.7076607594085644,0.0
1.766195686602078,-1.0326353052419788,1.7512209118868007,0.0
1.731182930610529,-1.0015629829839447,1.7557844228487518,0.0
1.8026021185639047,-1.0277713868345484,1.7136034624103857,0.0
1.847570967384692,-1.059640057044036,1.7052572316237964,0.0
1.7828473785933707,-1.044828092435371,1.7471039887790665,0.0
1.730514792265271,-1.0076215574290226,1.7621283843670348,0.0
1.789504890382873,-1.0253718823637823,1.7229769793721412,0.0
1.8501829028347614,-1.0646683948836797,1.7043525224152234,0.0
1.7997324227967766,-1.0566552944964522,1.7421303680098494,0.0
1.7335483710227455,-1.0156107861531718,1.7667313238062055,0.0
1.7765179010054948,-1.023271444233828,1.7333391586946438,0.0
1.849014800669527,-1.0667176028153422,1.705480927882305,0.0
1.8160992641567306,-1.0676654955942029,1.7366750224441316,0.0
1.7402718651618796,-1.02512002290726,1.7692088805686095,0.0
1.7644077258596091,-1.0217447306805527,1.7437045566683478,0.0
1.844170730611173,-1.066033102993143,1.708576197454476,0.0
1.830945561044879,-1.0773788484786568,1.7311797119593275,0.0
1.7503832579115937,-1.036142025726083,1.7698748731463998,0.0
1.7540908758748621,-1.0220612313820399,1.7539927070132144,0.0
1.836037735466687,-1.0633616224958446,1.7138743655531843,0.0
1.843446534090821,-1.0852194828056672,1.7264413209487581,0.0
1.7634952382439657,-1.0486207364345475,1.7690251492291869,0.0
1.7466034885172232,-1.0245267182024382,1.7636998908161985,0.0
1.8254126996293902,-1.0599774789783334,1.7213290299569404,0.0
1.8529850069266565,-1.0907386649535495,1.7228377727076736,0.0
1.7785654996115565,-1.0610176397583055,1.766292246138125,0.0
1.742174624463871,-1.028663757880182,1.7718146469372091,0.0
1.8128205314660706,-1.0559994943141335,1.7298643565016216,0.0
1.8588129113689555,-1.0938693396889376,1.720438000015974,0.0
1.794895594703626,-1.0733815519072476,1.7622909262527138,0.0
1.7414842237811354,-1.0348591250013262,1.7782948646896917,0.0
1.799485123096123,-1.052509939969771,1.7396214293982302,0.0
1.8609948886626826,-1.095388006614209,1.7200796568488665,0.0
1.8117723240580945,-1.0854227942732326,1.7575536081258782,0.0
1.7447339886109814,-1.0431010178447984,1.7829613724900928,0.0
1.7862478835878235,-1.0498526751819461,1.75008097291958,0.0
1.859418286015783,-1.094781827304581,1.721472796377277,0.0
1.8278127405420233,-1.0960140342729132,1.7523214223768022,0.0
1.7514902057039983,-1.0528597000670077,1.785615955068583,0.0
1.77404570866176,-1.0484455881649957,1.7606078398952292,0.0
1.8540755932421198,-1.0928205958390946,1.7250049978500601,0.0
1.8423060586817335,-1.1050345724862305,1.7469545897191272,0.0
1.7616598023962737,-1.0639120118513121,1.786173586389254,0.0
1.7637854532939734,-1.0485373197242402,1.7706647837954503,0.0
1.8455933744422643,-1.0894772219034699,1.7303045070534355,0.0
1.8544749742120472,-1.1122261121542587,1.7423170497795402,0.0
1.7746580570528576,-1.075845965843912,1.7849636417583994,0.0
1.7562288649355011,-1.0506661892731417,1.7800860440833621,0.0
1.8346435230545428,-1.0858020586731505,1.7378117427601507,0.0
1.8636524216714407,-1.117437108449591,1.7387301312363304,0.0
1.7898372161194345,-1.0882890031682257,1.782198552155322,0.0
1.752086460839088,-1.0551468199666525,1.7882691965424058,0.0
1.8219837632159905,-1.0819721319642224,1.7465434070281274,0.0
1.8692134462849432,-1.12064449437195,1.736734835712294,0.0
1.806119836106281,-1.100502711594428,1.7781642410950949,0.0
1.751463383610652,-1.0613027586105774,1.794700598084998,0.0
1.8084259996922016,-1.0784753356546564,1.7565499253928571,0.0
1.8708833898166881,-1.12165273686084,1.7363933904639948,0.0
1.8224882867918357,-1.111825926521531,1.7731021074178348,0.0
1.7546879356727523,-1.0694145643013198,1.7991707681621036,0.0
1.7951182180784009,-1.075730899063456,1.7670022269490038,0.0
1.8688325725594248,-1.1208032811645605,1.7379305646336751,0.0
1.8384227560070463,-1.1223922219743994,1.7679324171462558,0.0
1.7616324438610604,-1.0792904590714525,1.8017730476585685,0.0
1.7828921714892592,-1.0742556839294057,1.7774558696098173,0.0
1.8631669417818715,-1.1184045813565946,1.7414072443732314,0.0
1.8526392701434218,-1.1310270584853956,1.7625932112447273,0.0
1.7719873812183597,-1.0904680300316847,1.8024186554454156,0.0
1.7727228430179172,-1.074677595457744,1.7877737924782984,0.0
1.8544768517585815,-1.1151566940732829,1.747078239569454,0.0
1.864706529939953,-1.1384251282721911,1.758308918274512,0.0
1.7850199681544268,-1.1024878147229926,1.8011773289653454,0.0
1.765194954299325,-1.0768652053910739,1.797092592369627,0.0
1.843099992644786,-1.1109990013836624,1.7543886011110068,0.0
1.8733512906254877,-1.1431573502012908,1.754694104754222,0.0
1.8001476288017784,-1.114701523149195,1.798208391452836,0.0
1.7610817862846595,-1.0809571839519958,1.8049672907551875,0.0
1.8301500177562258,-1.106751186460398,1.7631162420649815,0.0
1.8785220537808005,-1.145932900420773,1.7526389959620232,0.0
1.8163178642175035,-1.1266475470838007,1.793969427820376,0.0
1.760757507176102,-1.0871876880154239,1.8111575616785958,0.0
1.8166689654194075,-1.103412908722509,1.7732182470820246,0.0
1.8799975371357842,-1.1469532128516688,1.7525553110307825,0.0
1.832802991009115,-1.1382690236889152,1.7891975091931236,0.0
1.7641518430890848,-1.0953925663700779,1.8156596500467836,0.0
1.8032450441414172,-1.1006336034099582,1.783712927545658,0.0
1.8775508257807285,-1.145992445468002,1.7543078666100342,0.0
1.8484381256625801,-1.1484345970671888,1.7839140932457558,0.0
1.7710791851376517,-1.1049433773688528,1.817898490178405,0.0
1.790901248562485,-1.0991755544156496,1.794302021777871,0.0
1.871441021137359,-1.1433357171220442,1.7579739103286158,0.0
1.8624027803424335,-1.15690099083197,1.7786140476005134,0.0
1.7814440466694887,-1.1160997588753412,1.818426617196395,0.0
1.7807351387423442,-1.0995942472927864,1.8045378690407121,0.0
1.8623461857254726,-1.1397388744042962,1.763632567361899,0.0
1.8738898782598827,-1.163463552411026,1.7739781169865272,0.0
1.7945208900595773,-1.1276442560725517,1.81674969992038,0.0
1.7733531622115568,-1.1016190471195038,1.8135691360913677,0.0
1.8508110762609333,-1.1355143947022432,1.7710410977650999,0.0
1.882310674465975,-1.1679699323141493,1.7703855658037146,0.0
1.8095989298342383,-1.1398622560336895,1.8137158529419724,0.0
1.7694170200129773,-1.1058483547983593,1.8213381554291435,0.0
1.837763737173526,-1.131297961628194,1.7798593973945853,0.0
1.8871418699195228,-1.1703973317619958,1.7683621070816646,0.0
1.8257519991102218,-1.1517275454673226,1.8094581138441699,0.0
1.7691163443465645,-1.1120767130943194,1.8274739775030586,0.0
1.823941507809342,-1.127498075663814,1.7897822308280744,0.0
1.888068036802773,-1.1707841063480504,1.7681386790440894,0.0
1.8420249631434635,-1.1629297927534332,1.8045056825286965,0.0
1.7726796594476295,-1.1201308512843668,1.8316611744953601,0.0
1.8104717207517291,-1.1245851963263984,1.8002103925002089,0.0
1.8852836352924864,-1.1696133219734814,1.7700403654623469,0.0
1.8575444945746058,-1.1729151216644194,1.7991694270574363,0.0
1.7798593973945853,-1.1298187231801418,1.8338715832080343,0.0
1.798329895535695,-1.1230198589587044,1.8106136096255314,0.0
1.879046962147589,-1.1667701800787662,1.7738198666357836,0.0
1.8713629688457212,-1.1812693990790126,1.793976401564646,0.0
1.7903929698935712,-1.140834288696562,1.834118346466821,0.0
1.7881219432499342,-1.1232137826935986,1.8206925476422964,0.0
1.8696490370808883,-1.163123448267394,1.7796971237298398,0.0
1.8826000848531823,-1.1877423748662919,1.7895097183596753,0.0
1.803453183585785,-1.1524702492320835,1.8325192132615105,0.0
1.7808354533714597,-1.1254689843021612,1.82980186698459,0.0
1.8578167388220714,-1.1588581989834545,1.7872936770073984,0.0
1.8906625378921675,-1.1919486155448693,1.7859887821660976,0.0
1.8185532174769898,-1.1643017428281,1.8291964923377624,0.0
1.7769787045691854,-1.1293394123720422,1.8372559949464793,0.0
1.844532292429482,-1.1543255334288518,1.7960661108572615,0.0
1.895063775189373,-1.194048249012023,1.7840321104564798,0.0
1.834652910787214,-1.1758891553746647,1.8247252493769228,0.0
1.7769242557196923,-1.1356442136340397,1.8431826046922928,0.0
1.8306234277037892,-1.1503985107420098,1.8059173293015158,0.0
1.8956721002664687,-1.194133275047931,1.783775423023155,0.0
1.850713712062086,-1.186509363235159,1.8192771457764083,0.0
1.780611757112951,-1.1435476116594805,1.8470455225760367,0.0
1.817240812449552,-1.1474920687069974,1.8162674386820123,0.0
1.8925998976945757,-1.1925574770638319,1.785601471138176,0.0
1.8660272498163282,-1.196183287642394,1.8138918058743245,0.0
1.787894491898357,-1.1532505039275294,1.8491330861011845,0.0
1.804941541545575,-1.145929949990505,1.8267063291914856,0.0
1.8859024209859871,-1.1895440148763674,1.7895515608252957,0.0
1.8795418297698294,-1.2044361775441383,1.8088366459413345,0.0
1.7984691022001627,-1.1642043786292526,1.8492422520211043,0.0
1.7949307316459098,-1.1462220425870469,1.836750934928767,0.0
1.8761850447875315,-1.1854254824430324,1.7953411096741092,0.0
1.8904138970868467,-1.2103005600333883,1.804150826233724,0.0
1.8116789831732492,-1.1758207590366314,1.8475291249190717,0.0
1.787768428059629,-1.1483675418338228,1.8457248026996615,0.0
1.8641585545728867,-1.1808651901322829,1.8029272023352627,0.0
1.8982038376574324,-1.2145084100375665,1.8009571195789718,0.0
1.826799133634464,-1.1877174303194797,1.844285260949762,0.0
1.7840814631082371,-1.1525646630006627,1.8531990472315605,0.0
1.8507689655743795,-1.176625153616089,1.8120477869567617,0.0
1.9023671629866556,-1.2167174776455734,1.7993354558152503,0.0
1.8428065589435767,-1.1992541491096196,1.8398059713609185,0.0
1.7842185240052373,-1.15871845587712,1.8588861356837911,0.0
1.8367656870801075,-1.1723660734136192,1.8216728951541061,0.0
1.9026276055130489,-1.216505583108137,1.7991713046039706,0.0
1.8588539491717755,-1.2099164676566683,1.8344825904944646,0.0
1.7880117044462807,-1.1666253407746958,1.8625752464026506,0.0
1.823297777569029,-1.1695832812289335,1.8321887650714832,0.0
1.8992751120656863,-1.214811767913314,1.8011824251630812,0.0
1.873965248342186,-1.2193763517589988,1.829058626777962,0.0
1.7954049462562736,-1.1760436506323397,1.8643216329004326,0.0
1.8110719992008208,-1.167872031673435,1.8424138834969859,0.0
1.8921742310731688,-1.211417432000331,1.805011547209209,0.0
1.8872550591534445,-1.227046129351393,1.8236671177944086,0.0
1.8060940868966684,-1.1867247446447307,1.8640662865717752,0.0
1.8011547984069345,-1.168197115444793,1.8523748043030266,0.0
1.882351712268795,-1.2073654183584952,1.8110341800492025,0.0
1.8979273018750313,-1.232954500073731,1.8192326211014533,0.0
1.819395967649933,-1.1985184190891287,1.8624108269704374,0.0
1.7942178004047633,-1.1705555821127394,1.861350281399522,0.0
1.870186820052483,-1.202851796490168,1.8188270710500563,0.0
1.9053567535110418,-1.2366422696879231,1.8158318478860673,0.0
1.8344002466678913,-1.2099483859477504,1.8587378095075857,0.0
1.790682648501712,-1.1746631174878022,1.8685981474635776,0.0
1.8565912373770759,-1.1981418368985457,1.827636787609671,0.0
1.909105677498064,-1.2381528899851906,1.8139754908055652,0.0
1.8504304707563484,-1.221364673538765,1.8542021935227146,0.0
1.7909320939698332,-1.1807957209105158,1.8740894346343797,0.0
1.842564891882526,-1.194070779570434,1.8375081226239351,0.0
1.909126598730874,-1.2380244121580615,1.8141224758771033,0.0
1.8664821525194826,-1.2322080412159016,1.8491212843801121,0.0
1.7950490170775673,-1.188960634346084,1.8778485510168732,0.0
1.8291270231159953,-1.1911546815818168,1.847914558400459,0.0
1.9054399020004156,-1.2359293384467767,1.8161655147272961,0.0
1.8814456619555546,-1.241425990036248,1.8436133675114355,0.0
1.8025975588080358,-1.1985146639960602,1.8795383428976944,0.0
1.8169618626787498,-1.1895654725510445,1.8582378456876094,0.0
1.8982421932509177,-1.2327487746177643,1.8204178894064296,0.0
1.8945410125900524,-1.249047756081552,1.8384257064373144,0.0
1.8134991304277337,-1.2092722009744885,1.8792213057543403,0.0
1.8071149357694312,-1.189540259783299,1.8677763185234448,0.0
1.8880328998604892,-1.2281705115044728,1.8261918814411022,0.0
1.9050263053210146,-1.25460609848572,1.8338471751030891,0.0
1.8268444629722194,-1.2206184829018691,1.8771002146125095,0.0
1.8002484798727607,-1.1916651060181982,1.8763856740457623,0.0
1.875690177165291,-1.2236442832522731,1.8340641658382613,0.0
1.9121647372442172,-1.2582944045417792,1.83068699606502,0.0
1.8419544210379626,-1.2323349097174299,1.873551115220918,0.0
1.7968659456808502,-1.1962101097357403,1.8838379244611172,0.0
1.8619497551858133,-1.2191027664068659,1.843162488122283,0.0
1.9156293470417676,-1.25979134557144,1.8290462886150227,0.0
1.857838464717682,-1.2434287957464214,1.86881594286155,0.0
1.7973197755002708,-1.2021965327497162,1.889079766163798,0.0
1.8478874680861792,-1.2149850386363314,1.8530684236369637,0.0
1.9151803451991494,-1.2590920935979002,1.8290975188133143,0.0
1.8735859839422684,-1.2535401884961352,1.8632535771433802,0.0
1.8014788092945586,-1.2102042687182748,1.892549203938151,0.0
1.834298322713175,-1.2118479265985402,1.863248749166578,0.0
1.9111602498483957,-1.2568272360357327,1.8311199046516304,0.0
1.888536082331667,-1.2628018573286364,1.8577931353799266,0.0
1.8094964694376552,-1.2200782859418733,1.8941357307595887,0.0
1.8224035289768612,-1.2103748572319577,1.8734585789988731,0.0
1.9037420634915905,-1.2532153729457107,1.8352271718057598,0.0
1.9014613808943488,-1.2699284875307664,1.8522959473485883,0.0
1.8204640234069853,-1.2307212925817124,1.8935810498691859,0.0
1.8127572313257732,-1.2106715095843685,1.8830917338242212,0.0
1.893447475844321,-1.2488068936833017,1.841272066983231,0.0
1.9116679920754425,-1.2755318910517564,1.8480009255410343,0.0
1.8339641194300793,-1.2421217551376529,1.8913647402959755,0.0
1.8061206407690813,-1.2128143266218099,1.8915103842628462,0.0
1.880840287308727,-1.2436583928654663,1.848786276434216,0.0
1.9185011885763632,-1.2786048982864497,1.8445827179649732,0.0
1.8490204333091298,-1.2534323636808828,1.8875262305171763,0.0
1.8029242519049946,-1.216937687031947,1.8984819827654342,0.0
1.8670451482588228,-1.2388153956908459,1.857742441623502,0.0
1.921696504556716,-1.2799905276287231,1.8431276194009327,0.0
1.8649747508734167,-1.2646761852116806,1.8828371921583642,0.0
1.8036092881690609,-1.2232808438874299,1.903786319945612,0.0
1.8530976597187112,-1.2350388449476772,1.8678779742572276,0.0
1.9212405289698278,-1.2794387971685883,1.8434371463581498,0.0
1.8808024681571087,-1.274891915904512,1.8774033042673235,0.0
1.8080743620484307,-1.2312832154373188,1.9070328661242564,0.0
1.8395895170676133,-1.2318486251650602,1.8780819032289866,0.0
1.9168486794052935,-1.2769491704641784,1.8456499690592252,0.0
1.8955283338461322,-1.2836911718477215,1.8717792477344568,0.0
1.8160356957954997,-1.2406250823289255,1.9081687817774753,0.0
1.8275906536091153,-1.2301580286214386,1.8880471155699627,0.0
1.9090284298692264,-1.2729996172189255,1.8496625542238418,0.0
1.9081143329279822,-1.2905954468960101,1.8662321706094944,0.0
1.8271749111622466,-1.2513423861673338,1.907432247094184,0.0
1.8180299184358022,-1.230568406649638,1.8976271626504855,0.0
1.8984640119628922,-1.2683422289302622,1.8557310528434579,0.0
1.918088664780696,-1.2956704551780767,1.8616936041943555,0.0
1.840640943126791,-1.2623010888458597,1.9048093145858425,0.0
1.8116132690445506,-1.232728926268688,1.905887294517433,0.0
1.885933534614269,-1.2634085730801312,1.8634523288550768,0.0
1.9247670978030083,-1.2987112759007544,1.858399046468621,0.0
1.8559751338929098,-1.2739386587069819,1.901028204086805,0.0
1.8087226520446125,-1.237163422961643,1.912820000984669,0.0
1.8720520284237894,-1.258699149930376,1.8725790825580457,0.0
1.927668980082152,-1.2997109353197736,1.8569104202878977,0.0
1.8717875625833942,-1.2848270875009402,1.89616857721431,0.0
1.8095139037983303,-1.2434057287461435,1.9179078838715415,0.0
1.857794476484594,-1.254401982355354,1.8823868492110787,0.0
1.9265875132784265,-1.298492944060915,1.8570388981150268,0.0
1.8874460324580706,-1.2948429935983412,1.8906378615662889,0.0
1.8141023593070935,-1.251374304458416,1.920891305314458,0.0
1.8444166892071592,-1.2513300480043945,1.8925188949726697,0.0
1.9220454599911523,-1.296074395903873,1.8594636153535384,0.0
1.9019570531793897,-1.3035757307500517,1.8850073677310188,0.0
1.8222723689403975,-1.2610090686093651,1.9220347311538137,0.0
1.8324698606097531,-1.2497555911249627,1.9025809350706262,0.0
1.9139918582429718,-1.2920331110993757,1.8636813895322548,0.0
1.9145170348306937,-1.3106001687765323,1.879777595970344,0.0
1.8336283068213828,-1.2717022325637617,1.9212161208648826,0.0
1.8230748859733208,-1.2499192058943756,1.9118294610773876,0.0
1.9032337848226768,-1.287276749286264,1.8698308908737766,0.0
1.9242421894362198,-1.3154437023930194,1.8752189129851953,0.0
1.8472896036254887,-1.282834205965305,1.9185416899373162,0.0
1.81688676081738,-1.2523546519702258,1.920119633688883,0.0
1.8905394244837077,-1.2824393847512465,1.8776994201778674,0.0
1.930619142129319,-1.3183042786484096,1.87204666400512,0.0
1.8626109197868013,-1.2940887563334413,1.9144757288069403,0.0
1.8141965048547393,-1.2564812310315645,1.9266033383135008,0.0
1.8766372652813512,-1.2775043877964483,1.8867304190075895,0.0
1.9333431939295762,-1.3191076003441333,1.8705475772079916,0.0
1.8786231730727163,-1.3049669927319278,1.9094414901067605,0.0
1.8154558021373512,-1.2631285504255951,1.9316445507579507,0.0
1.8626178935310713,-1.2735403506207883,1.8966642494993509,0.0
1.9321713366712734,-1.3180441043429498,1.8709442759685844,0.0
1.894175159236808,-1.3147565203614855,1.9037179236075787,0.0
1.8201992893456567,-1.2711496974408265,1.9345027130249397,0.0
1.8491797565436072,-1.270569267340811,1.9069658108908905,0.0
1.9273151966709134,-1.315331854263765,1.8734757451386148,0.0
1.9085507283867276,-1.3231958238119867,1.89810996033072,0.0
1.8285878990397333,-1.2808163798828578,1.9355659408051897,0.0
1.8373949333900135,-1.2690151952523225,1.9168862303359784,0.0
1.9189772807332612,-1.3110958410615732,1.8777337524573507,0.0
1.920844366651102,-1.3299936151496907,1.8928241303949513,0.0
1.8400605130267755,-1.2914926459184461,1.9345043223505405,0.0
1.8281506989181875,-1.269343497674882,1.9261055202609922,0.0
1.908016432287268,-1.306106127036348,1.8838119070305712,0.0
1.9303267813118437,-1.3344981175062798,1.8881798849320273,0.0
1.8539318268217833,-1.3026916745533554,1.9317360140962618,0.0
1.8221978035208946,-1.2717467572387167,1.934126935497157,0.0
1.8951109820736627,-1.3009187341831605,1.8916348387759734,0.0
1.9365473612007333,-1.3373259708077874,1.8852474254664688,0.0
1.8693765246124892,-1.3140299098527324,1.9276263329537313,0.0
1.819846578818152,-1.2762748630374507,1.940666966517802,0.0
1.8812938489072142,-1.2962935324065128,1.9008458138520496,0.0
1.9389935361139221,-1.3381791815971353,1.8839782040093187,0.0
1.8852471572455354,-1.324738094179403,1.922461202438021,0.0
1.821127870217308,-1.2825557926363698,1.9452117020144108,0.0
1.86699150407213,-1.2917732050148492,1.910423446944171,0.0
1.937392257141144,-1.3366538091485274,1.8843057017690779,0.0
1.9008050442701632,-1.334473977622268,1.9168111284746085,0.0
1.8262956829423527,-1.2907518197002195,1.9479813513733568,0.0
1.85381541893666,-1.2890598820519306,1.9207097197425032,0.0
1.9323277094754827,-1.3338396351146264,1.8868470951136462,0.0
1.9151578146407384,-1.3428920916190257,1.9110918535103625,0.0
1.834929446569615,-1.3003329396644758,1.9486215947415346,0.0
1.8421974292036807,-1.2876291915928353,1.9306094861757144,0.0
1.9239018170716544,-1.3297613358213112,1.8914307226456075,0.0
1.9272548469608841,-1.349493008791567,1.9058921224942353,0.0
1.846508276046309,-1.3109579755017728,1.94745966165777,0.0
1.833132634536342,-1.2881954059833771,1.939876787647818,0.0
1.912668992599129,-1.324762502284348,1.8977151391166616,0.0
1.9364502652228195,-1.3539167766471836,1.9013704539979046,0.0
1.8604919744124382,-1.3222377386376545,1.9446143739955872,0.0
1.8273924383392857,-1.290656064826973,1.9476734337417405,0.0
1.899649816709735,-1.3195260250003367,1.9055214411641885,0.0
1.9422832658628542,-1.35620711519803,1.898232537297313,0.0
1.8758618385627077,-1.3330403367329047,1.9400457668359001,0.0
1.8253196269654783,-1.2950039261584194,1.9537486378846929,0.0
1.8857095701348268,-1.3144984918234934,1.9144582944462651,0.0
1.9443847768765423,-1.3563895054327852,1.896696167790433,0.0
1.8917858471615134,-1.343661081035266,1.9347848814469435,0.0
1.8270627948120588,-1.3014398874568804,1.958082551727599,0.0
1.871782198164725,-1.3103434813432076,1.9241587727259126,0.0
1.9427411189962769,-1.355054301626003,1.8973487493215502,0.0
1.907443244152456,-1.3535981301782287,1.9292702590549302,0.0
1.8325117030753735,-1.3097493719755855,1.960658813793518,0.0
1.8585712443079048,-1.3072777160737175,1.934097431194476,0.0
1.9372935518376293,-1.3516626479223548,1.8997225045827038,0.0
1.921570440717988,-1.3616098894607889,1.9234646169501086,0.0
1.8413517286004697,-1.3192975007650256,1.961138392822551,0.0
1.8472246941595905,-1.30571211048509,1.9436114959253665,0.0
1.9286597882103669,-1.34734509555639,1.9041985755203457,0.0
1.9334351937097543,-1.3678352973264811,1.9179819128491775,0.0
1.8530850533348384,-1.3298316097058787,1.95965539928143,0.0
1.8382945464008507,-1.3059685296974812,1.9523718598332238,0.0
1.917291512166442,-1.3421064725049106,1.910445977502582,0.0
1.94240450172478,-1.3721005466104206,1.9136227862385258,0.0
1.8670593639682964,-1.3408702422225764,1.9565966077562102,0.0
1.8327136734382716,-1.308366156621713,1.9600180339834732,0.0
1.9041207914496412,-1.3367978437897974,1.9183289907370795,0.0
1.9479480919776073,-1.3742522149386662,1.910590012143852,0.0
1.8825630703643643,-1.3519021692159379,1.9521680119237914,0.0
1.8308878935441844,-1.3131034747485488,1.966285552535719,0.0
1.890119658722837,-1.331870357021136,1.9274058553464242,0.0
1.9497073530801956,-1.374316856183631,1.9092574905464044,0.0
1.8984041986947298,-1.362177981397865,1.94665043910151,0.0
1.8327238658337432,-1.3192154251593857,1.9701637590126704,0.0
1.8761820943572634,-1.3274876269683396,1.9368504508555473,0.0
1.9478204188132786,-1.372458889777528,1.9096823525050108,0.0
1.9138006167174122,-1.3713624026015285,1.9406476546105926,0.0
1.8384302661931833,-1.3274602684331263,1.9724433687261782,0.0
1.863145215886261,-1.324430981210587,1.946639978485105,0.0
1.9421754410476018,-1.3690162740965217,1.9121620550348826,0.0
1.9278406414795688,-1.37940447084957,1.9348878782853935,0.0
1.8474652883369074,-1.337261597783756,1.97285857473118,0.0
1.851854455692107,-1.3230083373794956,1.9561618216230656,0.0
1.9333289782201026,-1.3643849032384043,1.9165450533086126,0.0
1.9394570218869474,-1.3851803404307772,1.9293327545324273,0.0
1.8593944143527048,-1.3477114853515013,1.9712275232347873,0.0
1.8432032577041695,-1.3234627036407831,1.9649436432056002,0.0
1.9218805041170721,-1.3590580354998154,1.9228584376404807,0.0
1.9482514498533547,-1.3893527852717382,1.9250626772716855,0.0
1.8734998850226265,-1.3586932550303048,1.9679632744745343,0.0
1.8378345474999604,-1.325941869728788,1.9723798003649473,0.0
1.9086011539222187,-1.3534138623969392,1.9304812765695187,0.0
1.9534152392643975,-1.3910771776529762,1.921973040339117,0.0
1.8889469968017334,-1.3694958531255548,1.9632897929298632,0.0
1.8360785050485735,-1.3303583956192013,1.9781436000041486,0.0
1.8943918817510466,-1.348039251332194,1.9392408358145756,0.0
1.9549352472943362,-1.390902297604358,1.9206308627880648,0.0
1.9048508888305293,-1.3798011696101629,1.9578301558292097,0.0
1.8383621380760835,-1.3369252487331926,1.9821717419829061,0.0
1.8805396116423143,-1.3440137915627708,1.9490027366879865,0.0
1.9527892116056933,-1.389066861756666,1.921323409238268,0.0
1.9202065372713253,-1.3890322612562491,1.9518960358972592,0.0
1.8441986255882532,-1.3450837248663576,1.9841874222978857,0.0
1.8674549898451553,-1.3407535661165197,1.9586299906527984,0.0
1.946839534859602,-1.3853487831769924,1.9238173274776134,0.0
1.9339563469834742,-1.39655854064924,1.9459356303138293,0.0
1.853412819315531,-1.3543730204550053,1.984049288517152,0.0
1.856228602675033,-1.3391718672718844,1.9678951463574346,0.0
1.9377846643668013,-1.3803665793379045,1.9280587050984748,0.0
1.9454378122613207,-1.4021431687048875,1.9403180110833658,0.0
1.865460230762986,-1.3647529023591165,1.9821140744822114,0.0
1.8478086111317409,-1.339840273838076,1.9765771897527205,0.0
1.9261559457964834,-1.374886021004441,1.9342843811851003,0.0
1.9539782350037378,-1.405854809982158,1.9358186049245125,0.0
1.8796864008529663,-1.3754476756391139,1.9785073075899253,0.0
1.8426520636859016,-1.3423937371246502,1.9839275162133594,0.0
1.9128782049272306,-1.3694880747184843,1.9422234525946918,0.0
1.9589644621568276,-1.4075172433277658,1.9328628102377428,0.0
1.8951640898184885,-1.386345760386677,1.9738885431156805,0.0
1.8411832858542545,-1.3470369097038402,1.9896355258984,0.0
1.8985519884290682,-1.364154501456559,1.9510742069571265,0.0
1.960056657797892,-1.406739939062588,1.9312695778929685,0.0
1.9108437491469086,-1.3961090023647549,1.968024428847364,0.0
1.8434148840206723,-1.3533006731630175,1.9932551673954924,0.0
1.8844352524799408,-1.3596226405647565,1.9605096829545121,0.0
1.9574632295922314,-1.4042221491601645,1.9317097284447824,0.0
1.9260819168188474,-1.4050823336937825,1.9619867756350966,0.0
1.8495571433969906,-1.3615355922622194,1.9950919443478516,0.0
1.8715099539172593,-1.3566220529820983,1.9702284002576351,0.0
1.9513807834840755,-1.4006647349196357,1.9345263164670845,0.0
1.939839236717133,-1.4126837149481433,1.9560757227034238,0.0
1.8589545320218244,-1.371085062156327,1.9949626618579221,0.0
1.860471053179628,-1.3552436656050284,1.9795710718120423,0.0
1.9420035114292515,-1.3955714876140937,1.9390324281492743,0.0
1.9511297286903535,-1.418223281886969,1.9506965518828097,0.0
1.8712629224375392,-1.3814488508044305,1.9929005793214534,0.0
1.8521562042422537,-1.3555472917017093,1.987858562214203,0.0
1.9301602161121627,-1.3899249005228163,1.9453369611903384,0.0
1.959389860557301,-1.421541443054848,1.9460799331760328,0.0
1.8855910164822358,-1.3920189013503672,1.989070920833459,0.0
1.8472257670433243,-1.3581203351164264,1.994919746508568,0.0
1.916559805459953,-1.3844185929797403,1.9532889072047361,0.0
1.9638777332160156,-1.4228358772797438,1.9430900744307131,0.0
1.9009954811329224,-1.4025382581398795,1.984070746191829,0.0
1.8458919043412094,-1.3625489309488454,2.0002632439450316,0.0
1.9023108365906283,-1.379205987358807,1.9622783317897716,0.0
1.9648693460070308,-1.4223343041341667,1.9420397212552691,0.0
1.916788866137131,-1.4125029340389887,1.9783933136932033,0.0
1.8485349534195605,-1.3692729615298465,2.003982931850306,0.0
1.8882461355025928,-1.3748712688531004,1.9717661108691824,0.0
1.9619701459372219,-1.4198055171734711,1.9426708451117094,0.0
1.9317990460156258,-1.4210991467355665,1.9721416201760316,0.0
1.8546334927837245,-1.377234563497849,2.005462706740225,0.0
1.875220522310796,-1.371735229699043,1.9813222862866267,0.0
1.955365473671612,-1.4156368274255786,1.9452640050964363,0.0
1.945225649502951,-1.428038022284272,1.9658652503329814,0.0
1.8643240468888338,-1.3867242201237941,2.005028725269881,0.0
1.864406927157274,-1.370343967717167,1.9904388475941237,0.0
1.9458760852666004,-1.4104867172821423,1.9497698485576926,0.0
1.9563248999506115,-1.4334394554423637,1.9604461145932812,0.0
1.8766876908168424,-1.3971008833767036,2.002804100847733,0.0
1.856299144780534,-1.3709074998983741,1.998669206937457,0.0
1.933806947923535,-1.4047607367945596,1.9561470694717251,0.0
1.9642926710000839,-1.4364775939557068,1.9558689243637233,0.0
1.8912086357126996,-1.4078463504131258,1.9989060460217054,0.0
1.8516827942946903,-1.3736275283846293,2.005293191110276,0.0
1.9202741289465581,-1.3990245639115053,1.9639753656357963,0.0
1.96872260793717,-1.437731795040583,1.9530998114466442,0.0
1.9067118056669004,-1.418337275783691,1.9932527534070912,0.0
1.8505404413390685,-1.3784595285009775,2.003057301408923,0.0
1.9058400876331434,-1.3939626984551785,1.9708233142880576,0.0
1.9693279825839975,-1.4372141286389981,1.9523584487865506,0.0
1.9223895874487862,-1.4282316777982327,1.9871748670548042,0.0
1.8530445519738854,-1.3852141362683936,1.992094575416395,0.0
1.891479002413631,-1.3896000849723917,1.9701283538494532,0.0
1.9659258682639442,-1.4345278959903593,1.953271472844061,0.0
1.9371768757315726,-1.43692310892619,1.9812399424600533,0.0
1.8588904272187265,-1.3940458469445522,1.9796483194408798,0.0
1.8769293578778932,-1.38856770259949,1.9588413487483678,0.0
1.9576668092807303,-1.4322048344856302,1.9583368251725226,0.0
1.9490129290834581,-1.4456188315890826,1.9784405205774929,0.0
1.866822524884048,-1.4055286533270661,1.9686973951694244,0.0
1.862290932213179,-1.3910339940826886,1.9314369477554498,0.0
1.9435283474359928,-1.4310903765070886,1.9643557029194478,0.0
1.9557774610254122,-1.45465331729094,1.9809027887466895,0.0
1.8750046044593578,-1.4197676980218528,1.961378986999868,0.0
1.8488965152378696,-1.3971834954242104,1.8908647764759992,0.0
1.9253418952634211,-1.4314138509528458,1.9612438036494022,0.0
1.957650447803789,-1.4633546725934352,1.9881364391012715,0.0
1.8837266127737298,-1.4362825973370787,1.9617539598648501,0.0
1.8377736613480642,-1.4065690823279717,1.8485574839779715,0.0
1.9040349607509328,-1.4329437831573228,1.9380029962066407,0.0
1.9545353298825419,-1.4712789918516864,1.9981611964894768,0.0
1.8921549191659595,-1.4533843640547233,1.9674472173985502,0.0
1.8294271623405411,-1.4189118050231702,1.8136318997897982,0.0
1.8813997961759323,-1.4361538512890162,1.8925073614725307,0.0
1.946661436159782,-1.4784386132286325,2.005958379025266,0.0
1.899948883050547,-1.4711875285133753,1.9786996219992188,0.0
1.824130067125567,-1.4341620426371149,1.7934359363837167,0.0
1.8577622899725783,-1.441624217227008,1.8338903586733768,0.0
1.933706901515353,-1.4853136521951735,2.004001439094715,0.0
1.9056289977585075,-1.4891822027185206,1.9939297430431535,0.0
1.8211056078798304,-1.4521685185633324,1.7838853936058752,0.0
1.8345126312390125,-1.4492357908768403,1.769471200641537,0.0
1.9156033296112216,-1.4917726804939129,1.9801485514817896,0.0
1.9082430789760447,-1.5062102086794626,2.0093905340898672,0.0
1.8209154392380047,-1.4717470373805805,1.7834500710308636,0.0
1.8128052428728632,-1.4590443621926739,1.7082095394384311,0.0
1.8941008620382385,-1.4982247350483817,1.9270491215049175,0.0
1.9074483403501918,-1.5226789739941329,2.013733835665445,0.0
1.8216661896307695,-1.4939809434391194,1.787071858295424,0.0
1.7919422140052574,-1.4728939500920712,1.656807947970384,0.0
1.8678616127802863,-1.5063606806231358,1.8539192204379105,0.0
1.9006647647219617,-1.5398571836778145,1.9908009458542997,0.0
1.822437593035411,-1.5184394739198057,1.7937567286201392,0.0
1.7735728351560636,-1.489947705262626,1.6149917680015289,0.0
1.8392311739005058,-1.515597136687891,1.776176187536262,0.0
1.88834349970144,-1.5567545660441597,1.9590245436459235,0.0
1.8214095021974448,-1.5453093105923308,1.8066849776130889,0.0
1.756347418588092,-1.511654288965975,1.5918477883157478,0.0
1.807988263128789,-1.5274720820751289,1.7053127533570234,0.0
1.872843548398441,-1.5713618780805918,1.9239248840719323,0.0
1.8226763096661938,-1.5692657314855731,1.8290320729055491,0.0
1.7446114116443885,-1.5331650713878955,1.59026823523858,0.0
1.7781068418153336,-1.5392585145543236,1.6495649098831309,0.0
1.8535954777712198,-1.58397174882552,1.890478806552745,0.0
1.8229343382041858,-1.5919784119103446,1.8584674428066543,0.0
1.7371841057758457,-1.5560445852332814,1.6105749738901824,0.0
1.750661671240529,-1.5514987768529387,1.609661949832672,0.0
1.8319395878242954,-1.5943899863231166,1.8561553783601974,0.0
1.8226057675606928,-1.612380100772393,1.8888732360450309,0.0
1.7341971974607941,-1.579271713408436,1.647920447340065,0.0
1.7260977299329912,-1.5647633748964518,1.5858200592780183,0.0
1.8076108762754055,-1.6032031897548662,1.8212295259510907,0.0
1.819941529028598,-1.630031720403638,1.9151301878845917,0.0
1.7338688950382346,-1.6025817218520308,1.6963581974933384,0.0
1.7043281143102782,-1.5798886215554024,1.578681090912949,0.0
1.7808968759652228,-1.6116875543221898,1.7879953429693394,0.0
1.814316131391064,-1.6459031576994847,1.9380150661486466,0.0
1.7367879434571198,-1.6252378076598415,1.7532888952838057,0.0
1.687858812553741,-1.5954832548479145,1.5861904723871316,0.0
1.754209429527453,-1.6188699744784802,1.7572577604362678,0.0
1.8069140382902669,-1.6576488205967927,1.9543110971821662,0.0
1.7409780908796895,-1.6468521233620792,1.8179888806329823,0.0
1.6757505149543899,-1.6122752263874087,1.6133014396788408,0.0
1.7272658320982255,-1.625999286889945,1.7334805111265792,0.0
1.798185860894425,-1.6645139353887959,1.9627206281090532,0.0
1.7470473941621056,-1.6658078331718247,1.8840224604633402,0.0
1.667611082507501,-1.6305617249681623,1.6557803935742847,0.0
1.701205486202894,-1.6339850287419593,1.7196620368554636,0.0
1.7863227172282599,-1.669320990958332,1.9680761954875226,0.0
1.754594594787907,-1.6806375003620984,1.9504253805190779,0.0
1.664125819698074,-1.649175721308675,1.7130450264269144,0.0
1.6766552241629629,-1.6427019408585954,1.7143292682563387,0.0
1.768779995296001,-1.6745303779280636,1.965015794636702,0.0
1.7631409183908602,-1.6909253824860313,2.0080239484338698,0.0
1.6644192533992832,-1.668460806424714,1.7777999970674512,0.0
1.6556765920730343,-1.6522243204384233,1.71821444847756,0.0
1.7473893758522718,-1.679942003481627,1.9563420660903532,0.0
1.7714675690493071,-1.6967956658358176,2.056656426984838,0.0
1.6691571079679857,-1.6867443545751994,1.8500689089380393,0.0
1.6385455892736422,-1.6630856589181018,1.7351107579601714,0.0
1.722745504706562,-1.6858991904138554,1.9466560717411128,0.0
1.776926937929027,-1.7002205789352154,2.0987979589459846,0.0
1.6775821957090133,-1.7027051094418895,1.9276088985930562,0.0
1.6254022270920547,-1.6750013738872258,1.7645799236988928,0.0
1.6964738007156612,-1.6921755602569055,1.935837380389855,0.0
1.7769757541389173,-1.7032107059014685,2.1295358096999895,0.0
1.688649527865592,-1.7165109773291323,2.0061050958758706,0.0
1.6158256668836675,-1.6888268219026115,1.80755857319338,0.0
1.6697812580801557,-1.6985863087876212,1.9289081607947542,0.0
1.7699019634606796,-1.7075537392561124,2.153732824770549,0.0
1.7024771216484453,-1.7268927367797775,2.0852833789924836,0.0
1.6108861101730003,-1.7041285579357812,1.8643028574350902,0.0
1.6447744840114695,-1.705440426521352,1.9279648277717625,0.0
1.754823119023218,-1.7148694652163345,2.1712642814236025,0.0
1.7186299227034953,-1.7325511255921275,2.159946699136102,0.0
1.610202146792668,-1.7201335692564927,1.9334177593490791,0.0
1.6221685555182166,-1.712593074154028,1.9365696235382108,0.0
1.7355283779535744,-1.721955862278445,2.1822498061954745,0.0
1.7372763737769572,-1.732392338799517,2.2312451876694186,0.0
1.6154214579369377,-1.7345195990228175,2.0159726757970664,0.0
1.604449612432672,-1.7185540161793251,1.9562318272866996,0.0
1.7102292430674126,-1.7305206931258073,2.1878041252856404,0.0
1.751450777226779,-1.7316678740582316,2.25,0.0
1.6263273210915712,-1.7461944515936911,2.1058143503444615,0.0
1.5921763589592408,-1.7243076234230545,1.9905590105723154,0.0
1.683760396690416,-1.738168208380724,2.1913408865142925,0.0
1.7592702221000458,-1.7324674406608869,2.25,0.0
1.6417242755561203,-1.755483747182339,2.1976199385666773,0.0
1.5845122140064494,-1.7310426510623276,2.039064084179888,0.0
1.6588453541809742,-1.7435023180845162,2.196643346147936,0.0
1.7591277967843766,-1.7358143014686467,2.25,0.0
1.6616764261336836,-1.7606148136394992,2.25,0.0
1.5832558671541055,-1.737140922205558,2.0978852031094077,0.0
1.6372723445024902,-1.745106815708496,2.205184841774087,0.0
1.7506549657171924,-1.7417717566218085,2.25,0.0
1.6832255641490894,-1.763179542205279,2.25,0.0
1.5868162318249024,-1.744087039719467,2.1661699612343264,0.0
1.6196942174070141,-1.7446503036797407,2.215810414053251,0.0
1.7358384413526584,-1.7488484977303143,2.25,0.0
1.7048034018043758,-1.7634448127084745,2.25,0.0
1.5955642575698206,-1.7515210511113466,2.234606800628519,0.0
1.606745583623121,-1.7426729789582465,2.2323875406250404,0.0
1.7176101467144664,-1.754774571034261,2.25,0.0
1.7235729662862975,-1.7628898635971382,2.25,0.0
1.6092510353626057,-1.7576606282783303,2.25,0.0
1.5981413242985396,-1.740033148531097,2.25,0.0
1.6982051668411693,-1.7578054675824006,2.25,0.0
1.7361460907633413,-1.7643905597198675,2.25,0.0
1.6270834359030053,-1.763327600160551,2.25,0.0
1.5946769827219227,-1.7378085241089491,2.25,0.0
1.6812922276606832,-1.7560582764218182,2.25,0.0
1.7415577163169045,-1.7674740275709664,2.25,0.0
1.648722159710188,-1.7666728516427104,2.25,0.0
1.5960092360984368,-1.73613670303067,2.25,0.0
1.6674125990167379,-1.7496472596701693,2.25,0.0
1.743849932414285,-1.7681161484856784,2.25,0.0
1.671991130350963,-1.7687732897726645,2.25,0.0
1.6016290010963679,-1.735901205051089,2.25,0.0
1.65522866311415,-1.7422078838596204,2.25,0.0
1.7415673722705092,-1.7676725110617295,2.25,0.0
1.6939635209993744,-1.7711153949636693,2.25,0.0
1.611072791942691,-1.7373793706154073,2.25,0.0
1.644243674784145,-1.734737930862657,2.25,0.0
1.7353138012068035,-1.7654757816166615,2.25,0.0
1.713546331351558,-1.7734789578293513,2.25,0.0
1.6241952328914682,-1.7404376256987601,2.25,0.0
1.6354876024112228,-1.7285830651024656,2.25,0.0
1.7268728884307012,-1.7609221948292486,2.25,0.0
1.7297742342679778,-1.7754447490507066,2.25,0.0
1.6404408383894966,-1.744556158132095,2.25,0.0
1.6292713140572685,-1.724329349318665,2.25,0.0
1.717247780233357,-1.7536662821371891,2.25,0.0
1.742211638952689,-1.776217225339082,2.25,0.0
1.6589601527404967,-1.7489485441384962,2.25,0.0
1.6261808724619,-1.7214188839696507,2.25,0.0
1.7064864881618604,-1.7450743609755468,2.25,0.0
1.7516452374035403,-1.774680855832202,2.25,0.0
1.679295859252913,-1.7538020019295217,2.25,0.0
1.6271459313805023,-1.720719095554244,2.25,0.0
1.6947681837997655,-1.736632375315711,2.25,0.0
1.7569804199910664,-1.7713551844781859,2.25,0.0
1.7000049293047106,-1.7580345282595786,2.25,0.0
1.6320664444048936,-1.7214969362612886,2.25,0.0
1.6826757112354889,-1.7287040327434577,2.25,0.0
1.7570919998993872,-1.767300220406082,2.25,0.0
1.7197811269499215,-1.7620795681571444,2.25,0.0
1.640862749917835,-1.7236550418919374,2.25,0.0
1.671500017821791,-1.7215460206921125,2.25,0.0
1.753017187478207,-1.7622490837870934,2.25,0.0
1.7374236270694288,-1.766074182519219,2.25,0.0
1.6535581831405382,-1.7273015054823762,2.25,0.0
1.6623834565142939,-1.715852494937479,2.25,0.0
1.7456585461686307,-1.7556733793822978,2.25,0.0
1.751518368902012,-1.769633742527216,2.25,0.0
1.6692732476321754,-1.7319889345155877,2.25,0.0
1.6558729297963297,-1.7117640032486918,2.25,0.0
1.7362236066131123,-1.7479142842190603,2.25,0.0
1.7616817965128178,-1.772498878538475,2.25,0.0
1.6871035024051073,-1.737548081582556,2.25,0.0
1.6528074327477733,-1.7094674956163758,2.25,0.0
1.7258190483831224,-1.7389369295760309,2.25,0.0
1.768259914906015,-1.7732954947108621,2.25,0.0
1.705881113515033,-1.7437407664943654,2.25,0.0
1.6533709649289805,-1.708760197014832,2.25,0.0
1.7144389706181253,-1.7295652901608096,2.25,0.0
1.7714713241423756,-1.7716609563423344,2.25,0.0
1.724204358363671,-1.750454604679895,2.25,0.0
1.6581206212187554,-1.7101528001013755,2.25,0.0
1.703184420249989,-1.7211377884313808,2.25,0.0
1.771497609793855,-1.767435671977481,2.25,0.0
1.7412522126736893,-1.7573570021816494,2.25,0.0
1.6667224665549358,-1.713055755264253,2.25,0.0
1.6927581361243886,-1.713779415342738,2.25,0.0
1.768388392733144,-1.7610842002730607,2.25,0.0
1.7562342293541704,-1.7635580019423962,2.25,0.0
1.6786542747800677,-1.7177860996468186,2.25,0.0
1.6840986232875137,-1.7079592893075095,2.25,0.0
1.762443812184788,-1.7531333271423968,2.25,0.0
1.7688301526105588,-1.7683433316163222,2.25,0.0
1.69326856056077,-1.7241531281653795,2.25,0.0
1.6779577050158625,-1.7037479524311963,2.25,0.0
1.7540007536412183,-1.743969022508743,2.25,0.0
1.7787106071365604,-1.7706055069691549,2.25,0.0
1.7092810820676185,-1.7313747085779556,2.25,0.0
1.6751572102495682,-1.7015163542647784,2.25,0.0
1.7437367431803634,-1.7345590275000367,2.25,0.0
1.7857843978147983,-1.7705059970028398,2.25,0.0
1.7261218698170029,-1.7398577320406117,2.25,0.0
1.676051995283603,-1.701416039635663,2.25,0.0
1.7324610033584837,-1.7254223496225296,2.25,0.0
1.7896280037913328,-1.7683972440239484,2.25,0.0
1.742857783181403,-1.7486712036932948,2.25,0.0
1.6806589580367755,-1.703351521891537,2.25,0.0
1.7211152578729698,-1.7167504986227153,2.25,0.0
1.7898120033516889,-1.7632734195319912,2.25,0.0
1.7586946199768327,-1.7564622171476145,2.25,0.0
1.6887361632271007,-1.707343454044277,2.25,0.0
1.7107428861549956,-1.7094489883719668,2.25,0.0
1.7866944714420405,-1.7567513593138884,2.25,0.0
1.7733984915493122,-1.7628166392823026,2.25,0.0
1.6995272278222118,-1.7132955447787694,2.25,0.0
1.7021590116213574,-1.7033373061820634,2.25,0.0
1.7803494370400235,-1.7487626670316059,2.25,0.0
1.7862580759832951,-1.766952606076313,2.25,0.0
1.7126872197016738,-1.7211227680591068,2.25,0.0
1.6964145238893658,-1.6992214559580632,2.25,0.0
1.7714123155370136,-1.740043609147502,2.25,0.0
1.7967262025745157,-1.7686496399223377,2.25,0.0
1.7273693653785425,-1.7303018248441009,2.25,0.0
1.693992220639255,-1.697580212066199,2.25,0.0
1.76071244605928,-1.7312328197041533,2.25,0.0
1.8040743832676869,-1.767974796053743,2.25,0.0
1.7428610018326045,-1.7397716331209698,2.25,0.0
1.6945265167387147,-1.6978529927555315,2.25,0.0
1.7489917277087839,-1.7223876979813215,2.25,0.0
1.807780660126288,-1.764686407409478,2.25,0.0
1.7589419196774863,-1.7484754024118663,2.25,0.0
1.6982786593769383,-1.701061451561624,2.25,0.0
1.7374751254886538,-1.7142622130229728,2.25,0.0
1.8080499539434856,-1.7595947694295369,2.25,0.0
1.7752398282575403,-1.7563203282738122,2.25,0.0
1.7046810930587164,-1.7073826143005626,2.25,0.0
1.7266596527885976,-1.7077511498631417,2.25,0.0
1.8045080965170976,-1.7530244294434105,2.25,0.0
1.7903701711142268,-1.7616954757804244,2.25,0.0
1.7140481727180688,-1.7152634817675927,2.25,0.0
1.7174167594214391,-1.7028241995363473,2.25,0.0
1.7976419088413607,-1.7453420454671436,2.25,0.0
1.8037501041591293,-1.7652137297646675,2.25,0.0
1.726279851946813,-1.724064347036403,2.25,0.0
1.710522676768622,-1.699920707931603,2.25,0.0
1.7880943164937875,-1.7365151627677873,2.25,0.0
1.8143212275887999,-1.7660540659492092,2.25,0.0
1.7410534609619928,-1.7330728153077144,2.25,0.0
1.7066865809782243,-1.699459099705112,2.25,0.0
1.7768293055092461,-1.727907684792004,2.25,0.0
1.8215897466647324,-1.7650297302043114,2.25,0.0
1.7575809666610915,-1.7417747070520766,2.25,0.0
1.7062603779149506,-1.7016319574871013,2.25,0.0
1.764722885456429,-1.7202365660949428,2.25,0.0
1.8250940531604354,-1.7621809556699937,2.25,0.0
1.7748168438454681,-1.749557405657459,2.25,0.0
1.7093030761841626,-1.7055021173360487,2.25,0.0
1.7523431482724128,-1.7128320590057442,2.25,0.0
1.8245919435729914,-1.7572177955171817,2.25,0.0
1.7915986229894905,-1.755800784325693,2.25,0.0
1.7162964005823613,-1.7107678307018077,2.25,0.0
1.7408775080296406,-1.7066471525010052,2.25,0.0
1.8205098891866076,-1.7504449487262903,2.25,0.0
1.8071704575026581,-1.7603937995903252,2.25,0.0
1.727196094655525,-1.7175425550392336,2.25,0.0
1.7314919211258795,-1.702379221007731,2.25,0.0
1.8134170548220938,-1.742963730450121,2.25,0.0
1.8204970145818014,-1.7634174541732612,2.25,0.0
1.7407935548774665,-1.7250994116186393,2.25,0.0
1.7245302467978294,-1.700212800528145,2.25,0.0
1.8035210434819513,-1.7350195628427938,2.25,0.0
1.8307696081125269,-1.7648030835155346,2.25,0.0
1.7566113479866203,-1.7335789482091604,2.25,0.0
1.7207826639154749,-1.699906224001196,2.25,0.0
1.7916975965139386,-1.7265298338568011,2.25,0.0
1.8373903736341446,-1.7633949236148503,2.25,0.0
1.7735631792024589,-1.7413238276629242,2.25,0.0
1.7207499409615923,-1.7014613689734184,2.25,0.0
1.7791491483627735,-1.7183600924444309,2.25,0.0
1.8403035211924936,-1.7602846336704054,2.25,0.0
1.7909025896671522,-1.7487814424969483,2.25,0.0
1.7244792848204713,-1.705201441669636,2.25,0.0
1.7666878720149843,-1.711449380093739,2.25,0.0
1.839544187729858,-1.7558512098611843,2.25,0.0
1.807614631368474,-1.7553523189249418,2.25,0.0
1.7319084682355486,-1.710857684714518,2.25,0.0
1.7551530307713783,-1.7056997961640115,2.25,0.0
1.8350104492915211,-1.7495686709366645,2.25,0.0
1.8228460935170763,-1.760453881079421,2.25,0.0
1.7425745418756653,-1.7177571317860045,2.25,0.0
1.745413392235445,-1.7015372754975886,2.25,0.0
1.827353278083,-1.7422052016502858,2.25,0.0
1.8355975849148731,-1.7634941653602318,2.25,0.0
1.7560032911304582,-1.725434687785469,2.25,0.0
1.7384098754417747,-1.6996007203579808,2.25,0.0
1.8170755883545384,-1.7340944688432776,2.25,0.0
1.8455019111039532,-1.7645705359662216,2.25,0.0
1.7716405715513912,-1.7336119393839764,2.25,0.0
1.7347191553973145,-1.6995320557990141,2.25,0.0
1.8051091796289898,-1.726175782224629,2.25,0.0
1.8517257096440445,-1.763840706806267,2.25,0.0
1.788481091079842,-1.7421528985682604,2.25,0.0
1.734704939687841,-1.7021099271905336,2.25,0.0
1.7922107031596546,-1.718647088843237,2.25,0.0
1.854243499546468,-1.7610029293302212,2.25,0.0
1.8056040472512302,-1.749564915843596,2.25,0.0
1.7384393797444557,-1.7059897429930857,2.25,0.0
1.7796126341357987,-1.7117315485157427,2.25,0.0
1.8530019048454647,-1.7560545213287497,2.25,0.0
1.8221366491480648,-1.756003827572325,2.25,0.0
1.7460072333821335,-1.7118007495165763,2.25,0.0
1.7681161484856784,-1.7063035614852382,2.25,0.0
1.848231595543813,-1.749956518406453,2.25,0.0
1.8372337326090018,-1.7614849223476554,2.25,0.0
1.756812513686718,-1.7191846035938982,2.25,0.0
1.75848299366033,-1.7028271499666154,2.25,0.0
1.8402093756448479,-1.7427263549240057,2.25,0.0
1.8496891080962548,-1.76474541601484,2.25,0.0
1.770338358919425,-1.727413085390697,2.25,0.0
1.7515197100066793,-1.7011110724343148,2.25,0.0
1.8295939957611556,-1.7347601932001344,2.25,0.0
1.8591299485123096,-1.765967698808634,2.25,0.0
1.7858648640948374,-1.7358674092134725,2.25,0.0
1.7478067276247413,-1.7013983370540544,2.25,0.0
1.8174014767886968,-1.7271234067825563,2.25,0.0
1.8650820392468022,-1.765233041671877,2.25,0.0
1.8026603225064664,-1.7442533366982145,2.25,0.0
1.7478989956258528,-1.7037042324190417,2.25,0.0
1.8044506972373364,-1.7195416056563384,2.25,0.0
1.867213054563171,-1.762404383707569,2.25,0.0
1.8196223461177763,-1.752023428919724,2.25,0.0
1.7517750563353367,-1.7081896910893548,2.25,0.0
1.791834389190005,-1.7133596495818673,2.25,0.0
1.8656911689866982,-1.7579645225959446,2.25,0.0
1.8359001381278202,-1.7588163922806253,2.25,0.0
1.759120554819173,-1.7140902834046226,2.25,0.0
1.779984120128646,-1.70811110235585,2.25,0.0
1.860301001107812,-1.7517678143701332,2.25,0.0
1.8504342258494169,-1.7637559489912924,2.25,0.0
1.7697748267382178,-1.721347268980416,2.25,0.0
1.7702074671038948,-1.7045893614994718,2.25,0.0
1.851862502320111,-1.7444327765027017,2.25,0.0
1.8625492289721046,-1.7668775042149432,2.25,0.0
1.7833972315069713,-1.7297838902215825,2.25,0.0
1.7633147255557446,-1.7030146363991066,2.25,0.0
1.8410934318415442,-1.7365623696520769,2.25,0.0
1.8716628398493336,-1.767794819807389,2.25,0.0
1.7988607047630196,-1.7382049546486085,2.25,0.0
1.759778232548026,-1.70363905473221,2.25,0.0
1.8286579047033673,-1.7287989829539039,2.25,0.0
1.8772010656834919,-1.7669177373549627,2.25,0.0
1.8155105192077778,-1.7468368407293366,2.25,0.0
1.759870232328204,-1.7063762493582069,2.25,0.0
1.8155727464643414,-1.721615758134813,2.25,0.0
1.8790550087755928,-1.7643843906383978,2.25,0.0
1.8324180939695947,-1.7546978598472904,2.25,0.0
1.7637787477706368,-1.7107632709459388,2.25,0.0
1.8025549116796151,-1.7149123805656887,2.25,0.0
1.8768156322021046,-1.7592798780536505,2.25,0.0
1.8481972632643298,-1.7610772265287906,2.25,0.0
1.7711497272431527,-1.7167899270999345,2.25,0.0
1.7908036161427041,-1.7098738503305733,2.25,0.0
1.8712959136123553,-1.7533031109932793,2.25,0.0
1.8626396194266819,-1.7661307771361798,2.25,0.0
1.78192657612879,-1.7242142825382092,2.25,0.0
1.7809888757454009,-1.706275666508158,2.25,0.0
1.8626878991947053,-1.7460742886154994,2.25,0.0
1.8745137601511193,-1.7692869328602474,2.25,0.0
1.7953767830582599,-1.7324365952535385,2.25,0.0
1.7739526359978481,-1.704913372387096,2.25,0.0
1.8513510049999957,-1.7382771060797102,2.25,0.0
1.8830909291614208,-1.7702713036860591,2.25,0.0
1.8106951487893044,-1.7410100091707716,2.25,0.0
1.7703925395479847,-1.7057719475951132,2.25,0.0
1.838724504557193,-1.7304509556831067,2.25,0.0
1.8882206545139137,-1.769094618450954,2.25,0.0
1.8271258267314228,-1.749009698511326,2.25,0.0
1.770493927060834,-1.7081411431003979,2.25,0.0
1.8252946824186662,-1.7229203847551804,2.25,0.0
1.8895496892392263,-1.7658518273653776,2.25,0.0
1.8436884693728053,-1.7564718731012192,2.25,0.0
1.7744365065618166,-1.7128237441568068,2.25,0.0
1.8122553899592626,-1.7166992684244238,2.25,0.0
1.8871614500476657,-1.7612287713561976,2.25,0.0
1.8595880698666656,-1.76351106327904,2.25,0.0
1.782032523397508,-1.7194313668526848,2.25,0.0
1.8003906369674965,-1.7119037463550264,2.25,0.0
1.8810816861488444,-1.7549204832220653,2.25,0.0
1.8734470454987342,-1.7681437752418252,2.25,0.0
1.7926857224328188,-1.726796445464664,2.25,0.0
1.7905520249071152,-1.708524699035251,2.25,0.0
1.872062220819261,-1.7475368973656769,2.25,0.0
1.8851570350118916,-1.7712940301053561,2.25,0.0
1.8062233693865979,-1.7351383847163182,2.25,0.0
1.7837217788364623,-1.7073552557653493,2.25,0.0
1.8606679273447904,-1.7397343504112184,2.25,0.0
1.8935123853102191,-1.7722725000706316,2.25,0.0
1.821540930454842,-1.7438577108213555,2.25,0.0
1.7800887262926968,-1.7081599185657403,2.25,0.0
1.8476326581993887,-1.7320318498649419,2.25,0.0
1.8983312426008276,-1.771298053419358,2.25,0.0
1.8380252525836531,-1.752364069505223,2.25,0.0
1.7804682589135479,-1.7112130774513574,2.25,0.0
1.8342237572936722,-1.725160565991469,2.25,0.0
1.8993099807870366,-1.7682556233710796,2.25,0.0
1.8544824843981842,-1.7599654507595837,2.25,0.0
1.7843893807398536,-1.7156776148888606,2.25,0.0
1.8210412348557992,-1.7187602780771587,2.25,0.0
1.89654569584676,-1.7633914367427153,2.25,0.0
1.8700588786672208,-1.7663188000105379,2.25,0.0
1.7920830299953259,-1.7219467427667072,2.25,0.0
1.809247023969534,-1.714013035775785,2.25,0.0
1.8902129996076824,-1.7571322330394068,2.25,0.0
1.8839779357883852,-1.7712889339076203,2.25,0.0
1.8030012313128987,-1.7300939536206665,2.25,0.0
1.7995704173529645,-1.7114016367675824,2.25,0.0
1.8808877624139502,-1.7502056956536407,2.25,0.0
1.895133780853007,-1.774318757572026,2.25,0.0
1.8163774092647325,-1.7384594963144655,2.25,0.0
1.7926723113861456,-1.7104137790696357,2.25,0.0
1.8692421459248239,-1.7425764194221995,2.25,0.0
1.9032074991711974,-1.775265041025286,2.25,0.0
1.8318086960087652,-1.747369259282262,2.25,0.0
1.7893098937642449,-1.7114056600815843,2.25,0.0
1.8561416990925907,-1.7348857205969954,2.25,0.0
1.9076712319459002,-1.7738689510666075,2.25,0.0
1.8481693682872495,-1.755690813742973,2.25,0.0
1.7897580909440627,-1.7144955652350862,2.25,0.0
1.842585813115336,-1.7277859124882116,2.25,0.0
1.9082817027904635,-1.770696433865599,2.25,0.0
1.8645525711241449,-1.7635027484301027,2.25,0.0
1.7939471654828985,-1.719643797831988,2.25,0.0
1.829364666863044,-1.7219767835112552,2.25,0.0
1.9052585846493941,-1.766468735512344,2.25,0.0
1.8800149714964594,-1.7702637934999221,2.25,0.0
1.801700628006533,-1.726306405819226,2.25,0.0
1.8175117155923504,-1.7172056695468032,2.25,0.0
1.8985114870681152,-1.7599734973875876,2.25,0.0
1.8935333065430293,-1.774917426695517,2.25,0.0
1.8125549927419415,-1.7339161019225242,2.25,0.0
1.8077275523814622,-1.7141262250097067,2.25,0.0
1.8890060054070954,-1.7528779808137394,2.25,0.0
1.9045453851873142,-1.7778673205217506,2.25,0.0
1.8260757417769125,-1.742466717060413,2.25,0.0
1.8011891306864178,-1.7136769549461548,2.25,0.0
1.8772718760099263,-1.7454791063641435,2.25,0.0
1.912479896841037,-1.7788181637308793,2.25,0.0
1.841600637626724,-1.7512785793874954,2.25,0.0
1.797986840961795,-1.7148496168672582,2.25,0.0
1.864133878247008,-1.7381314621128394,2.25,0.0
1.9166432221702603,-1.7778024110558523,2.25,0.0
1.8578191528104726,-1.7599391651081042,2.25,0.0
1.7984956560725756,-1.7184743545620864,2.25,0.0
1.8503304243481664,-1.7312872685536465,2.25,0.0
1.9169092973362563,-1.7746789782856678,2.25,0.0
1.8740030674938044,-1.767377736255853,2.25,0.0
1.8027153077978264,-1.7233540980045912,2.25,0.0
1.837102572572538,-1.7252163559456295,2.25,0.0
1.9133564428515963,-1.769537719433036,2.25,0.0
1.8891545998042343,-1.7736817328550498,2.25,0.0
1.810531265798958,-1.7300899303066646,2.25,0.0
1.8251611083938013,-1.7206721568908878,2.25,0.0
1.906452436024241,-1.7633216993000147,2.25,0.0
1.9026927831998806,-1.7787773941489928,2.25,0.0
1.8217616762830826,-1.7382435784630272,2.25,0.0
1.8157932240716486,-1.7183359525604192,2.25,0.0
1.8967254038721806,-1.7561787076209434,2.25,0.0
1.9134208158756276,-1.7815880813107587,2.25,0.0
1.8353132707254016,-1.7469438608817887,2.25,0.0
1.8089908729780761,-1.7177624962046738,2.25,0.0
1.8845787506793439,-1.7485612331105747,2.25,0.0
1.9208677018723133,-1.7824909129727975,2.25,0.0
1.8505718231882837,-1.755800784325693,2.25,0.0
1.805543697541201,-1.719356801433182,2.25,0.0
1.8710411037255648,-1.7414930750719397,2.25,0.0
1.92459221775439,-1.781405959296937,2.25,0.0
1.8666430850795608,-1.7643454986030456,2.25,0.0
1.805694705926741,-1.723178681514106,2.25,0.0
1.8565177448413068,-1.7351115626229718,2.25,0.0
1.9239637761072845,-1.7787014876248226,2.25,0.0
1.8822192111276639,-1.7725981202838565,2.25,0.0
1.8089291821633795,-1.7297753071517117,2.25,0.0
1.8404781330201785,-1.732407895613658,2.25,0.0
1.9175296923553578,-1.7766254575998137,2.25,0.0
1.8946633213357118,-1.7817090489517509,2.25,0.0
1.8139261381538079,-1.7394596921753516,2.25,0.0
1.8245785325263182,-1.7321101703775132,2.25,0.0
1.906312424696973,-1.7743131249324233,2.25,0.0
1.9039504711568918,-1.790128504053176,2.25,0.0
1.8211246515661064,-1.7513260544927185,2.25,0.0
1.8099663925130836,-1.7346735578386256,2.25,0.0
1.8905480075535785,-1.7725841727953164,2.25,0.0
1.908950109356655,-1.798074817427971,2.25,0.0
1.829280177269003,-1.7654634434537222,2.25,0.0
1.7970604058576114,-1.740449695640766,2.2126070514448943,0.0
1.8715330209175371,-1.7717339124362366,2.25,0.0
1.909787763331862,-1.8049689000807883,2.25,0.0
1.8383892283903633,-1.7806165850897533,2.25,0.0
1.7872014090062869,-1.7490638791398858,2.1691375576421685,0.0
1.8504342258494169,-1.7719830896834243,2.25,0.0
1.9058408922959438,-1.8107892943369501,2.25,0.0
1.8474030610803438,-1.796199416661193,2.25,0.0
1.7805642820077279,-1.7601786864016873,2.135886208520676,0.0
1.8283422086646806,-1.773440602235866,2.2134135917918196,0.0
1.8976486203251626,-1.8157167811056114,2.25,0.0
1.8559322185435556,-1.8116931988827227,2.25,0.0
1.777314517177882,-1.7738609044386036,2.115925474873242,0.0
1.8061463899786938,-1.7770315440930777,2.1426035335783404,0.0
1.8843684654675084,-1.820130088344823,2.25,0.0
1.861970944639557,-1.8271679374179766,2.25,0.0
1.7759098441493326,-1.790410136033313,2.1119002833247524,0.0
1.783831481198249,-1.7835836450557285,2.0804430640271976,0.0
1.8658491511165083,-1.8251055866605743,2.25,0.0
1.8640354411644269,-1.8423969855781777,2.25,0.0
1.776579860041125,-1.8088975320932308,2.1129039660577735,0.0
1.763196976565954,-1.7920870533093278,2.020795556401677,0.0
1.843930136433856,-1.829247722536054,2.236987797854876,0.0
1.8626624182060263,-1.8563839025955085,2.25,0.0
1.7786440883450614,-1.828904667962154,2.1098883581028414,0.0
1.7445113652362065,-1.8038364712997046,1.963600929212681,0.0
1.8188933216206218,-1.8345265787275526,2.151624876454458,0.0
1.8560783989522933,-1.870477839765291,2.25,0.0
1.780345681946955,-1.8516055466658528,2.107883674846134,0.0
1.7274197909140336,-1.8203945541852182,1.9170766671987376,0.0
1.790609155965943,-1.8423476329264203,2.0646724778023335,0.0
1.8457851524096909,-1.8831475237783817,2.25,0.0
1.7841214280273232,-1.872691467129167,2.11806882835255,0.0
1.716036494497835,-1.8368898733723011,1.8939219586756182,0.0
1.7639906423080731,-1.8489681302271044,1.9924969068165905,0.0
1.8334392110632909,-1.8919558992333294,2.2184792123412147,0.0
1.7895912575234483,-1.891090350281042,2.140605287624036,0.0
1.7098371040626887,-1.8538873021468283,1.8998606383634375,0.0
1.738713769759389,-1.8557495600878668,1.9427309266008053,0.0
1.8171370109483016,-1.899003672481021,2.1859536690656745,0.0
1.7932288698230827,-1.9086588214229134,2.1712996865868197,0.0
1.7071897634494022,-1.8719651248413471,1.9226344731610385,0.0
1.7153541404431034,-1.8631433383397267,1.9018202605033232,0.0
1.798178350708288,-1.903520781221483,2.1444067829140168,0.0
1.795715277876291,-1.9229579476067957,2.1929558447546773,0.0
1.7080327818432786,-1.8903658855397567,1.9554226047304397,0.0
1.6943792634462431,-1.8726351407331396,1.8762735576955745,0.0
1.7756858796698904,-1.9085225651887139,2.1043461089546813,0.0
1.7954770976873753,-1.9362517817320564,2.2154241759090634,0.0
1.7129060879833802,-1.90856950385207,2.0046561663933,0.0
1.6785059486038623,-1.8825678983411667,1.8700575375625534,0.0
1.7528023425105026,-1.9117109074247967,2.06784794543361,0.0
1.7933420590570044,-1.9460659856874927,2.232612309767283,0.0
1.7209572757431597,-1.9253051489955366,2.06382811830379,0.0
1.6679192683600508,-1.8926583698580708,1.8818925180307051,0.0
1.7308232463387543,-1.9128151730078666,2.03521323623815,0.0
1.7889579878995405,-1.9520204904103864,2.2424761345954103,0.0
1.7313623704150163,-1.9396243917494287,2.124167904158581,0.0
1.6631237462906536,-1.9026981476185498,1.9080341348688765,0.0
1.7101823044040565,-1.9134068683870875,2.0091963421340395,0.0
1.781716022696021,-1.9550631886795984,2.244325249710709,0.0
1.7420748462766225,-1.9522978308555878,2.18721323456922,0.0
1.6626908377040432,-1.9134618536784476,1.9528750423044017,0.0
1.690436415724327,-1.9141149716514316,1.9950991863130552,0.0
1.771361085338722,-1.9555365986271618,2.233589975069758,0.0
1.7523774805518961,-1.9625615730955093,2.2345000486970004,0.0
1.667385508702458,-1.9242832272390398,2.0072042652612048,0.0
1.6746140628593043,-1.9145985739944666,1.987357525510493,0.0
1.759213627483085,-1.9534868542536323,2.216265584977339,0.0
1.7620556964940661,-1.9700846338372986,2.25,0.0
1.6764741750328749,-1.9355501157701154,2.071405359674139,0.0
1.6614934994570614,-1.91705440486126,1.996357678932867,0.0
1.7440156929511657,-1.95116352452797,2.2011741341560045,0.0
1.7685302816069464,-1.9758285851274233,2.25,0.0
1.6876635477141795,-1.946868502720416,2.1311236776260944,0.0
1.6527328673282704,-1.9198787712906327,2.010413796951031,0.0
1.7281791243766693,-1.946854018790009,2.181127838030796,0.0
1.7728100148212929,-1.9781175825736026,2.25,0.0
1.7019173445603066,-1.956948781841848,2.178231051949388,0.0
1.6482444582276892,-1.9237052111274255,2.032749626964286,0.0
1.711289252196461,-1.9425174227377682,2.162587334226052,0.0
1.7731922296514786,-1.9783278677854381,2.25,0.0
1.7168414255191595,-1.9661087949405665,2.2156312424696973,0.0
1.648112493528425,-1.9289781664583883,2.067913927783242,0.0
1.6950187021516205,-1.9379112646473962,2.1479515907706728,0.0
1.7705266500147165,-1.9760141940133802,2.25,0.0
1.7326087930928222,-1.9736168353100818,2.240069924601307,0.0
1.6530533913437595,-1.934936694495284,2.1025326672235334,0.0
1.6805693722449986,-1.9340370814844468,2.134460614259316,0.0
1.7644206004644154,-1.972459461982186,2.25,0.0
1.7472456094319353,-1.9795303022301558,2.25,0.0
1.6618775918337814,-1.9421083858142358,2.1425780525896614,0.0
1.6682164571543285,-1.9309294737493365,2.1318838157515305,0.0
1.7551624185040495,-1.967016186358474,2.25,0.0
1.7600652289468321,-1.9833417216946747,2.25,0.0
1.674076548108643,-1.949501091182362,2.1764919074168096,0.0
1.6591318141379134,-1.9286565695591653,2.1320844450097614,0.0
1.7441811852671127,-1.9597731482712206,2.25,0.0
1.7709563399501254,-1.98410722423878,2.25,0.0
1.689923845520478,-1.9562548942869775,2.2043643539386215,0.0
1.654116887344943,-1.9280541453426059,2.140223609235717,0.0
1.7311896361338657,-1.952566856451852,2.2475661632497506,0.0
1.7780180606863571,-1.9831005910754909,2.25,0.0
1.7072635242061047,-1.9629097238671451,2.227635738567798,0.0
1.6530378345296186,-1.9287238930134647,2.155220646288472,0.0
1.7177997789144253,-1.9446025722745148,2.2381859407646583,0.0
1.78198156142015,-1.9796284710918035,2.25,0.0
1.7260776133629814,-1.9682148657101233,2.2469066079743634,0.0
1.6567076333412687,-1.9307653225380568,2.1693572305866753,0.0
1.7047264223964718,-1.937243662744005,2.2262415261556536,0.0
1.7819587626408055,-1.9744147925871363,2.25,0.0
1.7445470386203572,-1.972333398143458,2.25,0.0
1.6642596619438723,-1.9338184814236739,2.1855156642813283,0.0
1.6928648880559072,-1.9303503847539885,2.2150344508927406,0.0
1.7785040770177933,-1.967348780315969,2.25,0.0
1.762115241541295,-1.975015607478095,2.25,0.0
1.6760812313653506,-1.9382696078145036,2.205155873913273,0.0
1.6830788472984848,-1.9250709921206228,2.2078469345387144,0.0
1.7715708341086907,-1.9593791317199625,2.25,0.0
1.7774263653071363,-1.9762529106441629,2.25,0.0
1.6910683442435674,-1.943290167247077,2.2238401441383533,0.0
1.6759109110726012,-1.9213475491222798,2.200548642939167,0.0
1.761561633534626,-1.9505514443578058,2.25,0.0
1.7891790019487146,-1.975276586446355,2.25,0.0
1.7082519183459184,-1.9484786329839985,2.241666643818217,0.0
1.671857556326098,-1.919389536307995,2.194644295530831,0.0
1.7493071555265374,-1.9420190682433924,2.25,0.0
1.7971038576488325,-1.9732480315265692,2.25,0.0
1.7268090518485368,-1.9542059545762485,2.25,0.0
1.6716150846022468,-1.9199989342688244,2.194378756806702,0.0
1.7357357127351418,-1.934733651248652,2.25,0.0
1.8005620301439798,-1.9701916539897506,2.25,0.0
1.7454906398642824,-1.9598731946794026,2.25,0.0
1.675000301003492,-1.9224620071008214,2.196868383511112,0.0
1.7215883995995998,-1.9281702850067957,2.25,0.0
1.7992244123487964,-1.965901460158999,2.25,0.0
1.76282495413124,-1.964955713147606,2.25,0.0
1.681641451316053,-1.9266631515816632,2.2041352932614435,0.0
1.7077178904673922,-1.9233672527512613,2.229143944876664,0.0
1.7931749574154565,-1.9608200145745296,2.25,0.0
1.778019133570091,-1.969376798793888,2.25,0.0
1.6914127399221348,-1.9324459949071402,2.21281036291246,0.0
1.6958137089984069,-1.919910153139848,2.2041629200175903,0.0
1.7833677272042903,-1.9549234455732638,2.25,0.0
1.7903902876842366,-1.9723315205969238,2.25,0.0
1.7041513567151256,-1.9396415578891704,2.2260564537115637,0.0
1.6858900709021176,-1.918931414953639,2.18233617333605,0.0
1.7696114801897385,-1.9496958195800567,2.25,0.0
1.7984650788861607,-1.974948552244729,2.25,0.0
1.7179298660671551,-1.9480805931187384,2.239880024180415,0.0
1.6793712293352163,-1.919787039731388,2.166356643004017,0.0
1.754424006274224,-1.944010876895294,2.25,0.0
1.8030122283711707,-1.9753819972732063,2.25,0.0
1.7334228436258845,-1.9563699610674334,2.25,0.0
1.6765420349290412,-1.9224719312753595,2.156998951077336,0.0
1.7376859471423562,-1.9387443588667344,2.2457208032275204,0.0
1.8027981880662667,-1.9745805531240168,2.25,0.0
1.7488624452188544,-1.9647245067029604,2.25,0.0
1.6773520621481015,-1.9273712548460074,2.155726779189918,0.0
1.7210310364998622,-1.9342288594518733,2.2138786868904456,0.0
1.7985023615959121,-1.9725530710879648,2.25,0.0
1.7635496870934588,-1.9722513225378182,2.25,0.0
1.6819338121335283,-1.934060416705658,2.1629902020681144,0.0
1.705407971788403,-1.9313556768126103,2.1823619225456623,0.0
1.7900263118775264,-1.969487842260342,2.25,0.0
1.7764315338649195,-1.978960600967479,2.25,0.0
1.6899876821026423,-1.9425273469123063,2.1749067217000393,0.0
1.6918091704617941,-1.9302093005429866,2.152530122104898,0.0
1.7781972322699109,-1.9661884565578052,2.25,0.0
1.7867218299772538,-1.984469322498956,2.25,0.0
1.7009072245248824,-1.9519998373985097,2.19104101551068,0.0
1.680883190737151,-1.9307688094101918,2.1287845228653577,0.0
1.7631993905543553,-1.9623362675113998,2.25,0.0
1.7933436683826052,-1.9886178956768388,2.25,0.0
1.7136415497829376,-1.9622544601266934,2.2083975921151153,0.0
1.6735827533701364,-1.9331009904266585,2.1140157418269805,0.0
1.7474457022482992,-1.9576010951520317,2.237088380704925,0.0
1.7971668895681965,-1.9899603414488245,2.25,0.0
1.728665408929039,-1.9714115227951434,2.225737807242609,0.0
1.670804789162253,-1.9370553716487136,2.1089364420099788,0.0
1.7305767513009012,-1.953249478727517,2.2060884780989265,0.0
1.7965652700144374,-1.9899316418089439,2.25,0.0
1.7437345974128957,-1.9802311635292964,2.2416062941081876,0.0
1.671329429308108,-1.9427727690664256,2.1140967445488865,0.0
1.7133851305705463,-1.950062745817035,2.175195327424446,0.0
1.79126173749706,-1.9888397143888132,2.25,0.0
1.7576061794288371,-1.9886895106660736,2.25,0.0
1.6756646842556815,-1.9504747331708352,2.129349932593099,0.0
1.6980149981993435,-1.9472257730037896,2.1463173206230786,0.0
1.7829621771528932,-1.9854928535810534,2.25,0.0
1.7706468129929083,-1.995124935522668,2.25,0.0
1.684274039777999,-1.9587345968168492,2.1471080359349295,0.0
1.6849408370185897,-1.9458438987545847,2.120407983113287,0.0
1.7711534823362212,-1.9815572478243408,2.25,0.0
1.7809250391632365,-1.9999845623951629,2.25,0.0
1.69547709172691,-1.9679013154389042,2.1669056912548172,0.0
1.6744804888344393,-1.9462604458642538,2.1022416475107253,0.0
1.7566081293354188,-1.9770532819096185,2.2408909488786395,0.0
1.7879148766893003,-2.0034464899833786,2.25,0.0
1.708857292992746,-1.9775926742068142,2.1890403555679745,0.0
1.6677253446251565,-1.9483724174943469,2.0947360211296107,0.0
1.7407055784112904,-1.9719004895568477,2.2164123018279436,0.0
1.7915557076401363,-2.004476458367879,2.25,0.0
1.7239326505580723,-1.9865619822218397,2.2081929395428825,0.0
1.6650771993490696,-1.951820129373089,2.0931476167616387,0.0
1.7242142825382092,-1.9667514522971454,2.1865177376887486,0.0
1.7911976326939623,-2.003609300089991,2.25,0.0
1.7396182107470286,-1.9947354787272784,2.224548515623631,0.0
1.6667643090205562,-1.9568996974110242,2.0984699247443586,0.0
1.7079008171440144,-1.9629920676937185,2.155791688655816,0.0
1.786436711124982,-2.001780837986569,2.25,0.0
1.7540973131772652,-2.0024409297038233,2.237780927155128,0.0
1.6717119123592272,-1.9639193074607024,2.11270467790421,0.0
1.6924102535736862,-1.9599705588782501,2.1279999766349764,0.0
1.777602050018555,-1.998362093968641,2.25,0.0
1.7667369564458082,-2.0085542212193275,2.248142570035764,0.0
1.6801329767862532,-1.9718570377656266,2.13348133963124,0.0
1.6796920215716389,-1.9581724057403094,2.106374663874467,0.0
1.7660022993090507,-1.9935901753413885,2.2454332703868474,0.0
1.7771643134551423,-2.0125826314190185,2.25,0.0
1.6918944647186356,-1.9805304980910419,2.155369240685611,0.0
1.6697061562187858,-1.9581632862285716,2.0907051969415185,0.0
1.7516210975195285,-1.9884499893724905,2.225447592192601,0.0
1.7842710953081962,-2.0151132959262488,2.25,0.0
1.705584997604489,-1.9893005179525038,2.1761273951682325,0.0
1.6633528069678316,-1.9598506641209916,2.081629673436841,0.0
1.7359414381911085,-1.9830343405049253,2.2008096219074273,0.0
1.7878665969212768,-2.015684338293593,2.25,0.0
1.7211579050013905,-1.9982861874444708,2.195261471898731,0.0
1.661055494672715,-1.9637886838661056,2.0824179747602907,0.0
1.7189123593464326,-1.9787816976048587,2.1735117046250947,0.0
1.7867191477679192,-2.0152543801372507,2.25,0.0
1.7361763997288227,-2.006890983210919,2.211113865508302,0.0
1.6626543596570922,-1.9691399597096395,2.0911558081097374,0.0
1.7029797676777563,-1.97429892114388,2.1458932633272725,0.0
1.7821819224574473,-2.0125362291975293,2.25,0.0
1.7511871160491843,-2.014005007029177,2.224753972858664,0.0
1.668475290355121,-1.9758653313953078,2.1065068967946647,0.0
1.6881216690685354,-1.9712465669210633,2.1193994724034635,0.0
1.773683610401584,-2.009098977935192,2.2464149590033244,0.0
1.764184297822034,-2.019935371868059,2.2349369805976127,0.0
1.6775500091969977,-1.9839312713064279,2.126261368544265,0.0
1.6754892677651962,-1.9696420692970835,2.098418694546067,0.0
1.7617746009557962,-2.00441691332065,2.2318253495485005,0.0
1.7745089262138518,-2.024214836861472,2.242308764732929,0.0
1.6894753801197266,-1.992637186364792,2.1479132351771875,0.0
1.6659435529641573,-1.9694234692363106,2.084930668464979,0.0
1.7476500865995985,-1.999274313363351,2.2134152011174204,0.0
1.7817254104286921,-2.0265644522386137,2.2472295459782536,0.0
1.7038367335601727,-2.001578867623671,2.168400754737944,0.0
1.660382796571588,-1.9715268577965328,2.080566982098458,0.0
1.732145307319797,-1.9942357831282356,2.1923571756311864,0.0
1.7853697282516634,-2.0271961125369207,2.2497631609157516,0.0
1.7194415592481564,-2.010211826588133,2.1868827863791926,0.0
1.6586887131558314,-1.9747919112195862,2.0831094483267605,0.0
1.7162534852330071,-1.9887345717828955,2.1682363353057306,0.0
1.7851318162836811,-2.02545911377181,2.249875545486873,0.0
1.7357314212002064,-2.0176495930730813,2.2026429119876516,0.0
1.6613803102231397,-1.9797054504997076,2.0904611158920665,0.0
1.7007605076742778,-1.984159259099872,2.140818255045206,0.0
1.7808263338597219,-2.0225510624111966,2.2457747156351466,0.0
1.7509215773250553,-2.0241915016402605,2.215818460681255,0.0
1.6678530177894852,-1.9859863800986266,2.1050850576263738,0.0
1.686739526598397,-1.9805345214050438,2.116600050520903,0.0
1.77283844624024,-2.018166454811866,2.237788437341265,0.0
1.7646375911995875,-2.0293662881095753,2.2267500730455008,0.0
1.6778458568866081,-1.9937548629945352,2.1242491751014203,0.0
1.67455720002141,-1.97907915462007,2.096821438887291,0.0
1.7608814252473621,-2.0135136262790714,2.2240976362344784,0.0
1.7749294966375229,-2.033533368531867,2.233682511291803,0.0
1.690203868175014,-2.0024143758314104,2.1444869809731224,0.0
1.6655618745758385,-1.9787948404305984,2.0843480925974958,0.0
1.7469240125327123,-2.0077044973021145,2.2072367319150845,0.0
1.7821907737482516,-2.03511721314397,2.2393151508945404,0.0
1.7048280781302545,-2.0108062041766885,2.1640408234644917,0.0
1.6602905285704765,-1.9802472567853042,2.0795037543182078,0.0
1.7313776590082237,-2.001833409289528,2.1863106711281146,0.0
1.7857736689774597,-2.035173271319064,2.2422245433598214,0.0
1.7207950020784142,-2.018997135042803,2.181682518921199,0.0
1.6591932367316766,-1.9835300127899662,2.081458012039424,0.0
1.7159310836709838,-1.996372699305141,2.1622150435704044,0.0
1.7856746954530116,-2.03325173655173,2.242665766795369,0.0
1.737322507777513,-2.0261344940822714,2.1971140738861648,0.0
1.6622699990594387,-1.988055168158432,2.0887922452440555,0.0
1.7003710508788885,-1.991408466268595,2.1353996557473724,0.0
1.7810851670605143,-2.029992583989213,2.238684295259034,0.0
1.7525094452511603,-2.032501254379899,2.2096204113507762,0.0
1.6689245604186727,-1.994439631037668,2.10206623102024,0.0
1.68623097970855,-1.988450257593424,2.1110974980708956,0.0
1.772435310177244,-2.02587807486988,2.2299373423978497,0.0
1.7656533438746145,-2.03781283352528,2.219413694073402,0.0
1.6787221346762342,-2.00205656910617,2.1187887333379667,0.0
1.67427610448314,-1.9865660055358416,2.089779298279202,0.0
1.7607483876643641,-2.0207952881807434,2.2164600451541,0.0
1.7760573656627376,-2.041318749346584,2.2269713553156083,0.0
1.6914604832482913,-2.01028746489137,2.1380349264186536,0.0
1.6653424698522652,-1.9868867977722642,2.0775258931548466,0.0
1.7460716064061648,-2.0158431250862034,2.1987279592428157,0.0
1.7826362887187348,-2.0437010876776083,2.2312561847276906,0.0
1.705758000106573,-2.019616725399104,2.158038307194508,0.0
1.6600236487416802,-1.9888456152493494,2.073759266586216,0.0
1.7305590487192926,-2.0101276052150254,2.1778558108634725,0.0
1.785842065315493,-2.043379222557452,2.2340767960639947,0.0
1.7216546501701653,-2.0274788174007914,2.1746940224998026,0.0
1.6591969918247451,-1.9919491996704577,2.0744971423741747,0.0
1.7149198907518257,-2.0043973331925073,2.1535984460828836,0.0
1.785361413402726,-2.0411224116232884,2.2345740776746363,0.0
1.738086132775084,-2.034613226009992,2.1899871754631013,0.0
1.6625722840514523,-1.9967723484960018,2.08299947774404,0.0
1.6996854781729553,-1.9996648430424742,2.1281424019506456,0.0
1.7808271385225223,-2.0378270492347537,2.2307465649541096,0.0
1.7535670403918076,-2.041006540180032,2.2025629821494794,0.0
1.669634541229551,-2.0031104091537486,2.0960484261570484,0.0
1.685657791573738,-1.9963549967235323,2.103209925080529,0.0
1.7719643142180819,-2.0333080629477576,2.222052988058685,0.0
1.766469271954211,-2.0459919626703216,2.2123399033951645,0.0
1.6795922433843904,-2.0106423211863422,2.1140433685831272,0.0
1.673962554211921,-1.9944388263748676,2.083490858494146,0.0
1.7601955843204955,-2.0282215211655523,2.2084399710226026,0.0
1.7768912645448762,-2.0493884443507726,2.2199651563126035,0.0
1.692710392798232,-2.0189662896354545,2.132324234524278,0.0
1.6655457813198307,-1.994158535499398,2.0681014142157332,0.0
1.745936423055699,-2.022349360269232,2.189618639900522,0.0
1.783669475754437,-2.050822085240136,2.2251168757816404,0.0
1.7074778327319422,-2.027178946397179,2.1505452871972666,0.0
1.6604860616309716,-1.9957359428090982,2.0606510413469126,0.0
1.729995248317152,-2.0169452449018057,2.166718204822326,0.0
1.7864034517292324,-2.05090603839231,2.227074083933125,0.0
1.7231314746298163,-2.03561047144061,2.1673345765274257,0.0
1.6594287347112577,-1.9998236298350847,2.0633911864031775,0.0
1.7136804418182898,-2.012183786890958,2.141835617045834,0.0
1.7849059742577047,-2.0493629633620936,2.2256699473464425,0.0
1.7387363003178,-2.043167059799082,2.181654892165052,0.0
1.6623797014212254,-2.004798055267102,2.0720936145894067,0.0
1.698322379389093,-2.007423669984778,2.116241439132862,0.0
1.7798553740805834,-2.0456269139798775,2.221605863762601,0.0
1.7536491159974474,-2.0489678739271016,2.194512330831567,0.0
1.6693636380867527,-2.0111184133432403,2.085190574549505,0.0
1.684051416403224,-2.0041545932477227,2.0888697610938265,0.0
1.7704654956418868,-2.041305070078977,2.211420978477118,0.0
1.7662340421955633,-2.05421883514152,2.203701043570166,0.0
1.6794506227315216,-2.019116493358194,2.102287245069414,0.0
1.6725830939511173,-2.0025337341468017,2.068099000227332,0.0
1.7584025273802908,-2.036075030097369,2.1971856888753996,0.0
1.776217225339082,-2.0574023494008005,2.211247439533167,0.0
1.6924354663414318,-2.0275233420757464,2.1216565515585604,0.0
1.6639911727894752,-2.002674013695003,2.0531314674772583,0.0
1.743728964773293,-2.0305633581356237,2.176933935515158,0.0
1.7825662830551008,-2.059238589911293,2.2155816215970066,0.0
1.7070360728545275,-2.036147449749404,2.139716135229604,0.0
1.65913851966125,-2.0046368544860904,2.0460115427984644,0.0
1.727678624114826,-2.024932864300354,2.153060663111289,0.0
1.7849137526647751,-2.059056467897471,2.217339809815861,0.0
1.7226508227170494,-2.0444480829773046,2.1571757086724888,0.0
1.6582426617434813,-2.0082932422510673,2.0485381839916927,0.0
1.7113871528371754,-2.019630136445777,2.12638179974339,0.0
1.7832523922029009,-2.057168997188687,2.2156532365862414,0.0
1.7383200214290644,-2.0518381061360964,2.1719294693385924,0.0
1.6614594353985115,-2.013554932302825,2.0564136870400533,0.0
1.6955782110188258,-2.01573288628255,2.0977392909216035,0.0
1.777302447235876,-2.0544307296789563,2.209446604185892,0.0
1.7525644305425203,-2.0586482356367393,2.1835986892698633,0.0
1.667991688012086,-2.0206147754925223,2.070788719748106,0.0
1.6815341629426674,-2.012629838303308,2.071333208243037,0.0
1.7681502125442283,-2.049901819217422,2.199154430527023,0.0
1.7652480620441509,-2.0634467081364045,2.1933592490386067,0.0
1.6784056339747468,-2.0282504890263664,2.087188552282876,0.0
1.670077105769766,-2.0110567225285436,2.0472898837673523,0.0
1.7558155364770336,-2.04470637973623,2.1827537933294527,0.0
1.775010499359429,-2.0667739888160215,2.200612747742265,0.0
1.6914170314570702,-2.036950235003261,2.1082532832924468,0.0
1.6614433421425037,-2.011957676644048,2.0353221339371363,0.0
1.7404574740478365,-2.039760922165027,2.1618617966010327,0.0
1.7804682589135479,-2.06878028139833,2.203958535666291,0.0
1.7055833882788882,-2.045849805575586,2.127742216317918,0.0
1.6565402634787874,-2.0142206566596816,2.029726508823217,0.0
1.7241029708508218,-2.034511033834342,2.1368480487880768,0.0
1.782250587016414,-2.0688344620268895,2.204814696885907,0.0
1.7209103370798036,-2.05456886345969,2.1448791199778463,0.0
1.655542213385369,-2.018455865199073,2.032545242612987,0.0
1.707342381160543,-2.02987698076689,2.109531892482268,0.0
1.7798561787433838,-2.067234792379712,2.202207052970773,0.0
1.736052749878496,-2.0622823610642387,2.159252006918431,0.0
1.6586484800158119,-2.024147781628106,2.0415563930936327,0.0
1.6918668379624888,-2.0255444080286513,2.081159482140479,0.0
1.774001183986805,-2.0636567251273066,2.196305655992705,0.0
1.7506002486467658,-2.068582602570367,2.171648105579389,0.0
1.6659679610691025,-2.0309369898959386,2.058372772738072,0.0
1.6782492611705375,-2.0222884741173357,2.0568801232433467,0.0
1.764822395422744,-2.059079534897749,2.1860040946011656,0.0
1.7633573726841654,-2.0732488421498347,2.181797049259788,0.0
1.6767120870008572,-2.038658534128491,2.0769301744616238,0.0
1.666846384626196,-2.0208411539603657,2.0348798376178547,0.0
1.7520113589777182,-2.053688294135129,2.1691281699094973,0.0
1.7726075080165278,-2.0763891728388275,2.188637487725912,0.0
1.689565234132437,-2.047026490810691,2.0973157700676643,0.0
1.6585967133756534,-2.021001550078577,2.021374108955158,0.0
1.7371103450191432,-2.0482667444070275,2.1479357657355984,0.0
1.7783493135391848,-2.0779215190317055,2.192712836588959,0.0
1.7042991464494641,-2.0556999511361065,2.1166622777774666,0.0
1.6544366066976317,-2.023177626511768,2.0156569797583797,0.0
1.7215674783667896,-2.042482023535016,2.1225727942672723,0.0
1.7808094359409137,-2.0771173926731814,2.1948347323935904,0.0
1.7205147112029446,-2.0634426848224026,2.1342664223034884,0.0
1.6542622630908803,-2.026661816437461,2.0164436717562286,0.0
1.705197418355634,-2.0375019654633957,2.0941628329947988,0.0
1.778450701052034,-2.0753530353728573,2.1921109488142667,0.0
1.7358655316669382,-2.0710370923324932,2.150015014411809,0.0
1.6577284822140315,-2.0327120760336013,2.029986683128677,0.0
1.689546190446161,-2.0336943010919453,2.067184366844221,0.0
1.7721509959877726,-2.0720037605766963,2.1854048890358078,0.0
1.7499460577900479,-2.077140996115326,2.162246693640553,0.0
1.6648467975672243,-2.0394605147195475,2.0462250466615015,0.0
1.6756260604412627,-2.0306100285780464,2.0415899207103156,0.0
1.7622531071010954,-2.0673461040670995,2.1740333943406815,0.0
1.7620068802841757,-2.0816908278096706,2.171953609222604,0.0
1.6753674954614037,-2.0474918541302505,2.0646303671157797,0.0
1.6640568869181738,-2.029662940461986,2.0182635507897797,0.0
1.7488825617888641,-2.0626055672890624,2.1554875261172683,0.0
1.7706921423306636,-2.0855314833559375,2.177577933976404,0.0
1.6880876050099856,-2.0566127069726834,2.083697388612913,0.0
1.6555269247921616,-2.030831310848154,2.0046998864054544,0.0
1.7329456785852526,-2.0580340096991074,2.1330680111727727,0.0
1.7752771109672918,-2.087757717103686,2.1798178469917593,0.0
1.70199271464261,-2.066256054193503,2.1052226549652406,0.0
1.6509017230155139,-2.0337111990107535,2.005515814485051,0.0
1.7169870694860303,-2.0522922041764504,2.110186083338986,0.0
1.7771315905012597,-2.087027619722798,2.1813322223820952,0.0
1.7179070672878107,-2.0741567700096093,2.123619660570581,0.0
1.6507547379439758,-2.0376419767906637,2.0114338411609936,0.0
1.7003300130760686,-2.0477423724821056,2.0839406649995644,0.0
1.7743249266534957,-2.0854445797734953,2.1782734308568754,0.0
1.732934949747914,-2.0817294516240894,2.1380638942794676,0.0
1.654327440777712,-2.043380563662119,2.023906114567055,0.0
1.684897117006435,-2.043181543729489,2.0574868389948415,0.0
1.768031390670704,-2.0816294052159074,2.1721684541903086,0.0
1.747287720118489,-2.087687174998185,2.1501118421687893,0.0
1.662098337662022,-2.0502086639653045,2.0404443491034923,0.0
1.6717194225453642,-2.0405376899883376,2.0355155212301637,0.0
1.7585768709870422,-2.076951095694434,2.1624113812937,0.0
1.7598525297465955,-2.0921391060518153,2.160012681485734,0.0
1.673264375122115,-2.057882733092634,2.06093347798985,0.0
1.6609216524269166,-2.0391458915645946,2.0186331592360927,0.0
1.7458275253567128,-2.071580776164624,2.147512781323526,0.0
1.769027026775721,-2.094959449167186,2.166845341544788,0.0
1.6866303606784774,-2.0660849292379533,2.0804100728523816,0.0
1.6534986380933092,-2.039423768451663,2.0060710318173207,0.0
1.731183467052396,-2.065463461335118,2.127009973169562,0.0
1.7746859520299378,-2.0953931624165967,2.17164354582352,0.0
1.7019975426194123,-2.0741691081725486,2.0995371758386105,0.0
1.6498425185492658,-2.041521256151349,2.0010974110481037,0.0
1.715217347767037,-2.059825725534645,2.102350276988778,0.0
1.776310298002994,-2.0945294910108436,2.1731927899352064,0.0
1.717886950717801,-2.0818654396373555,2.1170393964099166,0.0
1.650206494355976,-2.0453702265465528,2.00552117890372,0.0
1.699053013211848,-2.0546557670421324,2.0758875996932504,0.0
1.773684146843451,-2.092074196585917,2.1710947657936535,0.0
1.7334105054629452,-2.08892501460612,2.1317287840519885,0.0
1.6543566768594595,-2.0508553446358855,2.018223854091627,0.0
1.6835259715945687,-2.050406879235134,2.050918644776183,0.0
1.7668764313312093,-2.0883306370175645,2.164707352484149,0.0
1.7473722097125302,-2.0947690123044267,2.143390493797123,0.0
1.6619011952759262,-2.057448483401356,2.035347883146749,0.0
1.670074691781365,-2.046976869938,2.027504566610404,0.0
1.756787569139906,-2.0825536945526233,2.154586572001764,0.0
1.7592750500768481,-2.0982177970669027,2.153273094090592,0.0
1.6728134957329626,-2.0644308107412828,2.052669591029834,0.0
1.6591393243240504,-2.04496655404169,2.0057604319763698,0.0
1.7436825625518038,-2.076649883586154,2.1375768050642976,0.0
1.7680169067402969,-2.100313675440988,2.1604286921535363,0.0
1.686120472683963,-2.072040506844581,2.0711124624147965,0.0
1.6513456286603962,-2.0447095983874317,1.9890502678215822,0.0
1.7277767929764738,-2.07042045240646,2.1133406297374524,0.0
