0.058449364715738854,0.021423074176677964,0.15673329314390338,0.0
0.058445073180803435,0.021351190966509698,0.15668233116654529,0.0
0.058434880785331815,0.021381499931991094,0.15667347987574098,0.0
0.05842495661079366,0.021424415281345283,0.15663378317758836,0.0
0.05844024520400109,0.021422537734811037,0.15664209802652573,0.0
0.0584423909714688,0.021421733072010646,0.15669735153881925,0.0
0.05842576127359405,0.021395983862398132,0.15667133410827327,0.0
0.05842495661079366,0.02140966313000478,0.15668340405027914,0.0
0.058442927413335725,0.021445872956022377,0.1566681154570717,0.0
0.05843890409933377,0.021384718583192658,0.15664692600332808,0.0
0.058422542622392486,0.021384718583192658,0.15662117679371557,0.0
0.05842817526199522,0.02138042704825724,0.15660427887490735,0.0
0.05843756299466645,0.021401080060133942,0.15661473949131244,0.0
0.058434880785331815,0.021364333792249418,0.15663592894505607,0.0
0.0584394405412007,0.02142361061854489,0.15670781215522434,0.0
0.05841395955252165,0.021398129629865842,0.15664638956146115,0.0
0.05840484004078388,0.021363529129449027,0.15663110096825372,0.0
0.058442927413335725,0.02142119663014372,0.15663297851478797,0.0
0.058429784587596005,0.0213718439783864,0.15680222592380355,0.0
0.05843756299466645,0.02139008300186193,0.15669574221321847,0.0
0.058448828273871926,0.021397056746131987,0.1566874273642811,0.0
0.05845151048320656,0.021371575757452937,0.15670539816682316,0.0
0.058428979924795614,0.021474304374969527,0.15681536874954327,0.0
0.058424688389860195,0.02144748228162316,0.15681161365647478,0.0
0.05843005280852947,0.021422537734811037,0.15678961953993076,0.0
0.05844748716920461,0.021465184863231762,0.15681349120300903,0.0
0.05842817526199522,0.021453919584026288,0.1566726752129406,0.0
0.058419592192124385,0.021443727188554668,0.15686740361063523,0.0
0.05843032102946293,0.021455797130560533,0.15691166006465673,0.0
0.05845070582040617,0.021438362769885394,0.1568698175990364,0.0
0.05844614606453729,0.021423074176677964,0.15676065167911668,0.0
0.058431930355063715,0.02138337747852534,0.15670352062028892,0.0
0.05845285158787388,0.02138257281572495,0.15675475081858048,0.0
0.05845687490187584,0.021340730350104614,0.1566925235620169,0.0
0.05847216349508327,0.021394106315863887,0.15686042986636517,0.0
0.05847377282068405,0.021431925467482266,0.15685962520356478,0.0
0.058490938960425724,0.021315249361425564,0.15684058151728886,0.0
0.058479405460286786,0.021311762489290537,0.15700392806576824,0.0
0.0584630439833455,0.021296205675149643,0.15700285518203438,0.0
0.058470554169482485,0.02137828128078953,0.1570092924844375,0.0
0.05845982533214394,0.0213659431178502,0.1570589133571283,0.0
0.058469749506682094,0.02135199562931009,0.15703101838004807,0.0
0.05848530632082299,0.021422269513877573,0.15693365418120075,0.0
0.058484501658022596,0.02136674778065059,0.1569754966468211,0.0
0.058492548286026506,0.02135870115264668,0.1569746919840207,0.0
0.058492548286026506,0.02140027539733355,0.15695752584427902,0.0
0.058472699936950194,0.021349581640908916,0.1569127329483906,0.0
0.05848825675109109,0.021360578699180927,0.15693284951840036,0.0
0.05847377282068405,0.021415832211474445,0.15703209126378193,0.0
0.05846814018108131,0.0213629926875821,0.15690468632038668,0.0
0.05847967368122025,0.02134341255943925,0.15684782348249238,0.0
0.058486647425490305,0.021378817722656457,0.1568824239829092,0.0
0.05848932963482494,0.021363529129449027,0.15685989342449824,0.0
0.05849067073949226,0.02137747661798914,0.15683789930795422,0.0
0.058475650367218295,0.02136218802478171,0.15683897219168808,0.0
0.058479405460286786,0.021405103374135898,0.15683199844741802,0.0
0.05851400596070361,0.021364870234116345,0.1567775495979249,0.0
0.05850703221643355,0.02138552324599305,0.15675636014418126,0.0
0.058487452088290696,0.021330806175566458,0.1569524296465432,0.0
0.058468408402014775,0.021344485443173106,0.15687732778517338,0.0
0.05850703221643355,0.02137533085052143,0.15683897219168808,0.0
0.05850059491403042,0.021340998571038078,0.15680839500527322,0.0
0.05851320129790322,0.021381768152924557,0.1568387039707546,0.0
0.05850274068149813,0.021355214280511653,0.15682448826128104,0.0
0.05852151614684059,0.021409394909071316,0.15685318790116165,0.0
0.058489597855758406,0.02137828128078953,0.15680839500527322,0.0
0.058487452088290696,0.021329733291832603,0.15668206294561182,0.0
0.058491743623226115,0.021343144338505787,0.15667213877107367,0.0
0.05848128300682103,0.021311762489290537,0.15668420871307953,0.0
0.05849201184415958,0.02132302776849601,0.15661152084011087,0.0
0.058485842762689914,0.021347167652507743,0.1564776785943125,0.0
0.05850274068149813,0.021379354164523384,0.15669145067828305,0.0
0.058455265576275055,0.021313908256758246,0.15661983568904825,0.0
0.05844695072733768,0.02130183831475238,0.15659113604916763,0.0
0.05845687490187584,0.021353336733977407,0.15662037213091518,0.0
0.0584904025185588,0.02139142410652925,0.15647419172217747,0.0
0.05845767956467623,0.021374257966787574,0.15660266954930657,0.0
0.05843434434346489,0.021375867292388356,0.1566091068517097,0.0
0.05847725969281908,0.02138418214132573,0.15653776008340836,0.0
0.05846572619268014,0.021332951943034167,0.15657021481635747,0.0
0.058453119808807345,0.021296473896083107,0.15657852966529484,0.0
0.05845258336694042,0.021344485443173106,0.15661098439824395,0.0
0.058466262634547066,0.021312567152090928,0.15666462858493668,0.0
0.05845767956467623,0.021308812059022436,0.15653132278100523,0.0
0.058439172320267234,0.0213179315707602,0.15656082708368624,0.0
0.05844614606453729,0.021334024826768022,0.1565256901414025,0.0
0.05843863587840031,0.02132651464063104,0.1565855034095649,0.0
0.0584335396806645,0.021339925687304223,0.1565227397111344,0.0
0.058435685448132206,0.02130103365195199,0.15647150951284283,0.0
0.058448023611071535,0.021357360047979362,0.15649350362938685,0.0
0.05843032102946293,0.02139142410652925,0.15646990018724205,0.0
0.05843756299466645,0.021398129629865842,0.15646909552444166,0.0
0.05843863587840031,0.021387400792527295,0.15644093232642797,0.0
0.058423883727059804,0.021363529129449027,0.15642135219828512,0.0
0.05842415194799327,0.021337243477969586,0.15640847759347887,0.0
0.058442927413335725,0.021389546559995004,0.15641518311681546,0.0
0.05845070582040617,0.02131927267542752,0.15642537551228708,0.0
0.05843809943653338,0.02130773917528858,0.1563462503369153,0.0
0.05844963293667232,0.02132597819876411,0.1562539823358038,0.0
0.05844775539013807,0.021354677838644726,0.15636958555812663,0.0
0.058450169378539245,0.021368357106251373,0.15635081009278418,0.0
0.0584541926925412,0.021317395128893274,0.15634410456944758,0.0
0.058435685448132206,0.021336975257036123,0.1562368161960621,0.0
0.05844668250640422,0.021356823606112435,0.1562657840568762,0.0
0.05842576127359405,0.021285745058744556,0.15623279288206016,0.0
0.05843032102946293,0.02131632224515942,0.15615983678815804,0.0
0.05845580201814198,0.021376671955188747,0.15610592438053184,0.0
0.05844641428547075,0.02131122604742361,0.1563357897205102,0.0
0.05845553379720852,0.0213031794194197,0.15629582480142412,0.0
0.058454460913474664,0.021333488384901095,0.15625156834740261,0.0
0.05845285158787388,0.021334293047701486,0.15623145177739284,0.0
0.05844453673893651,0.021329733291832603,0.15619282796297407,0.0
0.05843166213413025,0.021312567152090928,0.15616064145095843,0.0
0.05845070582040617,0.021334829489568413,0.1562199182772539,0.0
0.05845472913440813,0.021340193908237687,0.15627061203367854,0.0
0.058445877843603826,0.021304252303153554,0.15621267631205038,0.0
0.058445877843603826,0.02127957597727489,0.156193364404841,0.0
0.058460361774010865,0.021312567152090928,0.15618907286990558,0.0
0.05843836765746684,0.021315249361425564,0.156193364404841,0.0
0.05842120151772517,0.021316858687026347,0.15620543434684686,0.0
0.05849576693722807,0.02148986118911042,0.1562132127539173,0.0
0.058459020669343546,0.021426561048812992,0.15616037323002496,0.0
0.05843434434346489,0.021364065571315954,0.15625988319634,0.0
0.0584335396806645,0.02135145918744316,0.15617807581163357,0.0
0.05843890409933377,0.021363260908515563,0.15616734697429502,0.0
0.05843300323879757,0.021382304594791485,0.1561778075907001,0.0
0.05840537648265081,0.02133456126863495,0.1561091430317334,0.0
0.05842012863399131,0.02138847367626115,0.15596564483233033,0.0
0.058425493052660586,0.021396788525198523,0.1559962220187452,0.0
0.05842200618052556,0.021390887664662322,0.15607722474065122,0.0
0.05840457181985042,0.02134904519904199,0.1559873707279409,0.0
0.05842415194799327,0.0213659431178502,0.15596913170446536,0.0
0.058414495994388575,0.021373453303987183,0.15571539470140872,0.0
0.05841127734318701,0.021357360047979362,0.15567516156138916,0.0
0.05840188961051578,0.021325441756897184,0.15595813464619335,0.0
0.0583914289941107,0.02135870115264668,0.15587713192428732,0.0
0.058391965435977626,0.021392496990263105,0.15582590172599575,0.0
0.05840108494771539,0.021321954884762157,0.1558226830747942,0.0
0.05839974384304807,0.021406176257869752,0.15576367446943218,0.0
0.05841127734318701,0.021388205455327686,0.1557974703070486,0.0
0.05841181378505394,0.02141556399054098,0.15576930710903492,0.0
0.05842495661079366,0.021442654304820813,0.15577198931836955,0.0
0.0584150324362555,0.021396788525198523,0.1557591147135633,0.0
0.058418787529323994,0.021437826328018467,0.1556896454917962,0.0
0.058400012063981536,0.021407785583470534,0.1556534356657786,0.0
0.058401353168648855,0.02140242116480126,0.15560435123495475,0.0
0.05842334728519288,0.021428438595347238,0.15565987296818173,0.0
0.058406449366384665,0.02140161650200087,0.1557658202368999,0.0
0.0584179828665236,0.021445872956022377,0.155720759120078,0.0
0.05843032102946293,0.021476181921503773,0.15571163960834022,0.0
0.05841905575025746,0.021458747560828634,0.15566550560778447,0.0
0.05842066507585824,0.021465989526032153,0.15566416450311715,0.0
0.05840188961051578,0.021435412339617294,0.15564968057271011,0.0
0.05841261844785433,0.021446677618822768,0.1556365377469704,0.0
0.058419592192124385,0.02142629282787953,0.15565263100297821,0.0
0.05843595366906567,0.021439972095486176,0.1556963510151328,0.0
0.05842629771546098,0.021468135293499863,0.15561266608389213,0.0
0.0584179828665236,0.021431120804681875,0.15557779736254185,0.0
0.05844346385520265,0.02146277087483059,0.15558128423467688,0.0
0.05843139391319679,0.021423342397611428,0.15556063122280017,0.0
0.05843675833186606,0.021413150002139808,0.1555780655834753,0.0
0.05846170287867818,0.02142414706041182,0.15560891099082363,0.0
0.0584335396806645,0.021426829269746456,0.15556358165306827,0.0
0.058445877843603826,0.021418246199875618,0.15555365747853012,0.0
0.058460361774010865,0.02146062510736288,0.1555906719673481,0.0
0.058427638820128296,0.021384450362259194,0.15547801917529336,0.0
0.05846089821587779,0.021406444478803216,0.15556170410653403,0.0
0.058475650367218295,0.02144533651415545,0.15560649700242246,0.0
0.058442122750535334,0.0214287068162807,0.1555169112106456,0.0
0.05844480495986997,0.021415027548674054,0.15539755289525425,0.0
0.05841556887812243,0.021360042257314,0.15561534829322676,0.0
0.058426029494527514,0.021374257966787574,0.15561454363042637,0.0
0.058442122750535334,0.02143594878148422,0.15565853186351442,0.0
0.05845580201814198,0.021413686444006735,0.1555367595597219,0.0
0.058434076122531424,0.021371575757452937,0.15548123782649492,0.0
0.05843514900626528,0.021448555165357014,0.15550028151277084,0.0
0.05844346385520265,0.02147296327030221,0.1554200834536652,0.0
0.05844104986680148,0.02143943565361925,0.1555308586991857,0.0
0.05844346385520265,0.021440508537353103,0.1555456108505262,0.0
0.05844051342493455,0.021438630990818858,0.15549786752436967,0.0
0.05842442016892673,0.021448018723490087,0.15549679464063582,0.0
0.05842146973865863,0.02147162216563489,0.1554798967218276,0.0
0.05842710237826137,0.021441313200153495,0.1554710454310233,0.0
0.05843756299466645,0.021484496770441147,0.15538065497644604,0.0
0.05844104986680148,0.02144453185135506,0.15545870726808397,0.0
0.058445073180803435,0.021505686224184778,0.15553810066438922,0.0
0.058461166436811256,0.02150139468924936,0.15552388495491565,0.0
0.05843005280852947,0.021427633932546847,0.15546702211702135,0.0
0.05842200618052556,0.021418782641742545,0.15545200174474738,0.0
0.05844131808773494,0.021509977759120197,0.15548096960556146,0.0
0.05845499735534159,0.021498712479914722,0.15545173352381392,0.0
0.05844265919240226,0.021459552223629025,0.15542115633739906,0.0
0.05844748716920461,0.0214257563860126,0.15526853862625822,0.0
0.05844158630866841,0.02146652596789908,0.15542571609326794,0.0
0.058434880785331815,0.02144399540948813,0.15551476544317788,0.0
0.0584571431228093,0.02142924325814763,0.15544315045394308,0.0
0.05845580201814198,0.021411272455605562,0.15544315045394308,0.0
0.05842656593639444,0.02142924325814763,0.1554208881164656,0.0
0.05842146973865863,0.021380963490124166,0.15538521473231492,0.0
0.05843675833186606,0.02146062510736288,0.1554112321628609,0.0
0.058454460913474664,0.02149415272404584,0.15539755289525425,0.0
0.05845285158787388,0.021520974817392208,0.15538950626725034,0.0
0.058434076122531424,0.021504076898583996,0.155307162440677,0.0
0.05844104986680148,0.021506222666051705,0.15535866085990202,0.0
0.05845580201814198,0.021539750282734665,0.1553388125108257,0.0
0.058437026552799524,0.021473499712169136,0.15538360540671414,0.0
0.058444268518003044,0.021479937014572265,0.15541069572099397,0.0
0.05844775539013807,0.021457942898028243,0.1553417629410938,0.0
0.058456070239075446,0.021407249141603607,0.15538575117418185,0.0
0.05843890409933377,0.021492543398445058,0.155414182593129,0.0
0.05843970876213416,0.02147001284003411,0.1554015762092562,0.0
0.05844185452960187,0.02144453185135506,0.15539192025565152,0.0
0.058440781645868016,0.021418782641742545,0.15539218847658498,0.0
0.05843005280852947,0.02141180889747249,0.15540211265112314,0.0
0.058443732076136116,0.021431925467482266,0.15539782111618772,0.0
0.05844104986680148,0.021389010118128077,0.15538736049978263,0.0
0.05846706729734746,0.021446677618822768,0.15536482994137168,0.0
0.05845848422747662,0.021419587304542936,0.15530501667320928,0.0
0.05843970876213416,0.02137533085052143,0.1552975064870723,0.0
0.05844104986680148,0.021401348281067406,0.15526263776572202,0.0
0.0584335396806645,0.0214110042346721,0.15545012419821314,0.0
0.0584364901109326,0.021457942898028243,0.15537448589497638,0.0
0.058454460913474664,0.021485301433241538,0.15537314479030906,0.0
0.05845177870414003,0.021402152943867797,0.15534900490629733,0.0
0.058452315146006954,0.021450969153758187,0.15538950626725034,0.0
0.058464116867079356,0.021437826328018467,0.15531628195241476,0.0
0.058450169378539245,0.021435412339617294,0.15533613030149107,0.0
0.05842951636666254,0.021494420944979303,0.15538280074391375,0.0
0.0584394405412007,0.021473499712169136,0.15534900490629733,0.0
0.05843970876213416,0.021454456025893215,0.15529106918466917,0.0
0.058459557111210474,0.0214767183633707,0.15536885325537364,0.0
0.05846089821587779,0.021481546340173047,0.15540667240699202,0.0
0.05844695072733768,0.02145338314215936,0.15537099902284135,0.0
0.05843970876213416,0.021456065351493997,0.15537260834844213,0.0
0.058440781645868016,0.02144909160722394,0.15537180368564174,0.0
0.05844480495986997,0.021427365711613383,0.15534498159229537,0.0
0.05845580201814198,0.02143299835121612,0.1553699261391075,0.0
0.058445073180803435,0.021436485223351148,0.15527524414959482,0.0
0.05844748716920461,0.021435412339617294,0.15524520340504688,0.0
0.05845633846000891,0.021427633932546847,0.1554533428494147,0.0
0.058476455030018686,0.02149334806124545,0.15540720884885895,0.0
0.058469213064815166,0.021480205235505728,0.15543161695380414,0.0
0.058461166436811256,0.021438362769885394,0.15539540712778654,0.0
0.0584394405412007,0.02144238608388735,0.15534310404576113,0.0
0.0584659944136136,0.021435680560550757,0.15531762305708208,0.0
0.05845767956467623,0.02142924325814763,0.15530313912667504,0.0
0.058459020669343546,0.02147242682843528,0.15531064931281202,0.0
0.058431930355063715,0.021410736013738635,0.1552524453702504,0.0
0.05844909649480539,0.021416368653341372,0.15533908073175917,0.0
0.05845365625067427,0.021413150002139808,0.1552553958005185,0.0
0.05846518975081321,0.021446409397889304,0.15525673690518582,0.0
0.05847377282068405,0.02141905086267601,0.15531547728961437,0.0
0.05845043759947271,0.02136165158291478,0.15524037542824454,0.0
0.05846197109961165,0.021346631210640815,0.15525083604464962,0.0
0.05847216349508327,0.02140671269973668,0.15525673690518582,0.0
0.058463312204278965,0.021429779700014556,0.1552309876955733,0.0
0.05844695072733768,0.021407785583470534,0.1551963871951565,0.0
0.05844775539013807,0.02140751736253707,0.15503813684441292,0.0
0.05845848422747662,0.021438362769885394,0.15521248045116431,0.0
0.058448828273871926,0.021429779700014556,0.1552945560568042,0.0
0.05843756299466645,0.02138552324599305,0.15523071947463984,0.0
0.05845472913440813,0.021425219944145674,0.15521838131170052,0.0
0.058449364715738854,0.021398934292666233,0.1552317923583737,0.0
0.05848503809988952,0.021448555165357014,0.15520309271849309,0.0
0.05844560962267036,0.021397593187998915,0.15513469638045985,0.0
0.05845204692507349,0.02136084692011439,0.1551467663224657,0.0
0.05844963293667232,0.02134689943157428,0.15514569343873186,0.0
0.058448828273871926,0.02138766901346076,0.15517063798554398,0.0
0.05845767956467623,0.021394106315863887,0.15517224731114476,0.0
0.05844104986680148,0.021354141396777798,0.15508883060083756,0.0
0.058450974041339636,0.0214169050952083,0.15516151847380621,0.0
0.058445073180803435,0.021405103374135898,0.1551947778695557,0.0
0.05842334728519288,0.021358164710779753,0.15509714544977493,0.0
0.05844775539013807,0.021353336733977407,0.15517680706701364,0.0
0.05844560962267036,0.021364870234116345,0.15520845713716236,0.0
0.058452315146006954,0.021372648641186792,0.1550279444489413,0.0
0.05846867662294824,0.02140081183920048,0.1551379150316614,0.0
0.05846170287867818,0.021389010118128077,0.15525780978891968,0.0
0.058455265576275055,0.021393033432130032,0.15517171086927783,0.0
0.0584748457044179,0.0214257563860126,0.15517251553207823,0.0
0.05845070582040617,0.021389546559995004,0.15515695871793733,0.0
0.05844856005293846,0.02138337747852534,0.15513442815952638,0.0
0.058462507541478574,0.02142709749067992,0.15511967600818588,0.0
0.058463312204278965,0.021403225827601652,0.15509902299630918,0.0
0.058439976983067625,0.021409394909071316,0.15504779279801761,0.0
0.05841717820372321,0.02137613551332182,0.15515695871793733,0.0
0.05842012863399131,0.021398397850799306,0.1551572269388708,0.0
0.05842012863399131,0.021389546559995004,0.15511457981045007,0.0
0.058426834157327905,0.021426561048812992,0.15508507550776907,0.0
0.05842415194799327,0.021390887664662322,0.15510653318244616,0.0
0.058416641761856285,0.021424415281345283,0.15511350692671622,0.0
0.05842334728519288,0.02136674778065059,0.15510465563591191,0.0
0.05843541722719874,0.02140376226946858,0.15512718619432286,0.0
0.0584394405412007,0.021405103374135898,0.15512208999658705,0.0
0.05845151048320656,0.021396788525198523,0.1551092153917808,0.0
0.05844963293667232,0.02142119663014372,0.15507112801922895,0.0
0.05845499735534159,0.02142790215348031,0.15504993856548532,0.0
0.05844480495986997,0.02139652030426506,0.15513603748512717,0.0
0.05843139391319679,0.021321686663828693,0.15506951869362817,0.0
0.05845499735534159,0.021369429989985228,0.1549482828317026,0.0
0.058455265576275055,0.021381768152924557,0.1551918274392876,0.0
0.058437026552799524,0.02140027539733355,0.15518404903221716,0.0
0.058448291832005,0.021439703874552712,0.15509714544977493,0.0
0.05844185452960187,0.021406980920670143,0.1551454252177984,0.0
0.05844480495986997,0.021414222885873663,0.15512369932218784,0.0
0.0584453414017369,0.021397861408932378,0.15511860312445203,0.0
0.05842120151772517,0.021402152943867797,0.15509687722884147,0.0
0.05842307906425941,0.021353336733977407,0.15511699379885124,0.0
0.058434076122531424,0.021339389245437296,0.15510680140337962,0.0
0.058418787529323994,0.021398397850799306,0.15509097636830527,0.0
0.058408595133852374,0.021330537954632994,0.15502445757680627,0.0
0.05845848422747662,0.02142709749067992,0.15512128533378666,0.0
0.0584571431228093,0.021406980920670143,0.15514944853180035,0.0
0.05845848422747662,0.021395447420531205,0.15513147772925828,0.0
0.05842844348292869,0.021356287164245508,0.15510170520564381,0.0
0.058428979924795614,0.021401348281067406,0.15508802593803717,0.0
0.058447218948271144,0.02142119663014372,0.15509312213577298,0.0
0.0584394405412007,0.021357628268912826,0.15510358275217806,0.0
0.05844346385520265,0.021375599071454893,0.15513845147352834,0.0
0.058448828273871926,0.021394910978664278,0.15512745441525633,0.0
0.05844104986680148,0.021375599071454893,0.1550944632404403,0.0
0.058434880785331815,0.021359774036380536,0.1550641542749589,0.0
0.058424688389860195,0.021362724466648636,0.15505396187948728,0.0
0.058431125692263323,0.021394106315863887,0.15486915765633077,0.0
0.05843675833186606,0.021361383361981318,0.1550641542749589,0.0
0.05844158630866841,0.021322491326629084,0.1551690286599432,0.0
0.058459557111210474,0.021356018943312044,0.15513684214792756,0.0
0.05844775539013807,0.021353873175844335,0.1551231628803209,0.0
0.05844131808773494,0.02138632790879344,0.1550915128101722,0.0
0.0584394405412007,0.02140242116480126,0.1550907081473718,0.0
0.0584335396806645,0.021372112199319865,0.15506817758896085,0.0
0.05842710237826137,0.021349581640908916,0.15500568211146382,0.0
0.05844453673893651,0.021328392187165285,0.1549850290995871,0.0
0.0584335396806645,0.021372916862120256,0.15521972241636783,0.0
0.05841610531998936,0.021321150221961765,0.1551239675431213,0.0
0.05843729477373299,0.02135065452464277,0.15503223598387672,0.0
0.05845580201814198,0.021356823606112435,0.15504511058868298,0.0
0.058448291832005,0.02136808888531791,0.15502097070467125,0.0
0.05843970876213416,0.021316054024225956,0.155000585913728,0.0
0.058440781645868016,0.021338584582636905,0.15501131475106655,0.0
0.05844104986680148,0.021350118082775843,0.15504511058868298,0.0
0.05844990115760578,0.02133161083836685,0.15505396187948728,0.0
0.058450974041339636,0.02133536593143534,0.15502097070467125,0.0
0.058435685448132206,0.021359237594513608,0.15491609631968695,0.0
0.05846197109961165,0.02139008300186193,0.15482490120230927,0.0
0.05845499735534159,0.021374257966787574,0.15515534939233655,0.0
0.05843246679693064,0.0213718439783864,0.15504591525148337,0.0
0.058434880785331815,0.02134341255943925,0.15504001439094717,0.0
0.05844400029706958,0.021366211338783664,0.15504752457708415,0.0
0.05843809943653338,0.02134180323383847,0.1549984401462603,0.0
0.05843970876213416,0.021323295989429475,0.1550051456695969,0.0
0.05843890409933377,0.02136674778065059,0.15499897658812722,0.0
0.058448291832005,0.021359774036380536,0.15495096504103723,0.0
0.05846518975081321,0.02131712690795981,0.15497644602971627,0.0
0.05846706729734746,0.021339121024503832,0.15496062099464192,0.0
0.05846223932054511,0.021324100652229866,0.15490536748234837,0.0
0.058448828273871926,0.021261605174732825,0.15492655693609203,0.0
0.05846572619268014,0.021336975257036123,0.15497081339011354,0.0
0.05847001772761556,0.021346631210640815,0.15492548405235818,0.0
0.05844963293667232,0.021312298931157464,0.1549541836922388,0.0
0.05848235589055489,0.021335634152368804,0.15490241705208027,0.0
0.05846277576241204,0.021260800511932434,0.1549252158314247,0.0
0.05846358042521243,0.02133241550116724,0.1549858337623875,0.0
0.05846787196014785,0.02136084692011439,0.15494265019209985,0.0
0.05847538214628483,0.02134636298970735,0.15494801461076912,0.0
0.058459020669343546,0.021334024826768022,0.1549268251570255,0.0
0.05844480495986997,0.021359505815447072,0.15488712845887284,0.0
0.058467603739214384,0.021306666291554727,0.15489866195901178,0.0
0.058478600797486395,0.02130183831475238,0.15491395055221924,0.0
0.05846223932054511,0.021321686663828693,0.15491609631968695,0.0
0.05847886901841986,0.02134046212917115,0.1549327260175617,0.0
0.05847243171601673,0.02132597819876411,0.15491073190101767,0.0
0.05846384864614589,0.02132731930343143,0.15486728010979653,0.0
0.05845848422747662,0.021323295989429475,0.15489302931940904,0.0
0.05845499735534159,0.021314444698625173,0.15488015471460279,0.0
0.05847699147188561,0.021362456245715172,0.15476025995734452,0.0
0.0584718952741498,0.021320345559161374,0.15488095937740318,0.0
0.05846438508801282,0.02132222310569562,0.15508132041470057,0.0
0.058459020669343546,0.021314444698625173,0.15500299990212918,0.0
0.05846572619268014,0.021318199791693665,0.15496088921557538,0.0
0.05843622188999913,0.0212817217447426,0.15495981633184153,0.0
0.058435685448132206,0.021356823606112435,0.15494050442463214,0.0
0.05844668250640422,0.021345826547840424,0.15492548405235818,0.0
0.058464116867079356,0.021329733291832603,0.15493138491289438,0.0
0.05848611098362338,0.021345290105973497,0.15493889509903136,0.0
0.05845472913440813,0.021282794628476456,0.15491743742435427,0.0
0.058448828273871926,0.02130478874502048,0.15494023620369868,0.0
0.05845848422747662,0.02134126679197154,0.15493245779662823,0.0
0.058468408402014775,0.02132731930343143,0.1549394315408983,0.0
0.058457411343742764,0.02128654972154495,0.1549555247969061,0.0
0.058453119808807345,0.02128735438434534,0.15495176970383762,0.0
0.05846358042521243,0.0213090802799559,0.15492253362209008,0.0
0.058440781645868016,0.021318199791693665,0.15488551913327206,0.0
0.058442122750535334,0.021302374756619308,0.154989588855456,0.0
0.058465457971746675,0.021340193908237687,0.15493755399436404,0.0
0.058442927413335725,0.02130398408222009,0.15499227106479063,0.0
0.058442122750535334,0.02129593745421618,0.15495284258757147,0.0
0.05844480495986997,0.021307202733421654,0.15494694172703527,0.0
0.05841637354092282,0.02127501622140601,0.1548911517728748,0.0
0.058457411343742764,0.021312567152090928,0.15485360084218988,0.0
0.05845338802974081,0.02126348272126707,0.15484179912111748,0.0
0.058409399796652765,0.021211984302042044,0.1547669654806811,0.0
0.05843139391319679,0.02127367511673869,0.15500755965799806,0.0
0.058458216006543155,0.021311494268357073,0.1549466735061018,0.0
0.058459020669343546,0.021337779919836514,0.1549238747267574,0.0
0.05844453673893651,0.021340730350104614,0.15490241705208027,0.0
0.05842871170386215,0.021276357326073327,0.15483670292338167,0.0
0.058442122750535334,0.02126857891900288,0.15490644036608223,0.0
0.058459020669343546,0.021346631210640815,0.15495793878530728,0.0
0.05844748716920461,0.021314444698625173,0.15494720994796873,0.0
0.05843219857599718,0.021310957826490146,0.15491609631968695,0.0
0.058443732076136116,0.021299156105417744,0.15495150148290415,0.0
0.05844400029706958,0.021308812059022436,0.1549437230758337,0.0
0.058427638820128296,0.021316590466092883,0.15491851030808812,0.0
0.05842629771546098,0.021280380640075282,0.15493728577343058,0.0
0.05844748716920461,0.021270188244603663,0.15497644602971627,0.0
0.058432735017864106,0.02130827561715551,0.15494130908743253,0.0
0.058427638820128296,0.02134046212917115,0.15494479595956756,0.0
0.058426834157327905,0.021323832431296402,0.1549836879949198,0.0
0.058414495994388575,0.02131712690795981,0.15494479595956756,0.0
0.0584120820059874,0.021259459407265115,0.15492280184302354,0.0
0.05843434434346489,0.021312030710224,0.15482034144644038,0.0
0.05842951636666254,0.021279039535407964,0.15484340844671826,0.0
0.058413691331588184,0.021288159047145733,0.15511538447325046,0.0
0.058422542622392486,0.021288963709946124,0.1549887841926556,0.0
0.058439172320267234,0.021294864570482325,0.1549689358435793,0.0
0.05843729477373299,0.021302374756619308,0.15491663276155387,0.0
0.05841851930839053,0.021289768372746515,0.15487881360993547,0.0
0.058409399796652765,0.02127072468647059,0.15493245779662823,0.0
0.05840698580825159,0.021253558546728914,0.15495364725037186,0.0
0.05840832691291891,0.02125624075606355,0.154971081611047,0.0
0.05842012863399131,0.021263750942200534,0.1549777871343836,0.0
0.058423883727059804,0.021263214500333607,0.15495659768063996,0.0
0.05841261844785433,0.021267237814335562,0.15493809043623097,0.0
0.05842120151772517,0.021334024826768022,0.1549075132498161,0.0
0.05841771464559014,0.021285476837811092,0.15493353068036209,0.0
0.058426834157327905,0.021293523465815006,0.15496169387837577,0.0
0.05842951636666254,0.021301570093818917,0.1549163645406204,0.0
0.05843327145973103,0.021299156105417744,0.15490188061021334,0.0
0.05843139391319679,0.02127957597727489,0.15505798519348923,0.0
0.058440781645868016,0.02122700467431601,0.1549319213547613,0.0
0.05844909649480539,0.021265360267801316,0.15495901166904114,0.0
0.05844748716920461,0.021268310698069417,0.15496088921557538,0.0
0.058419592192124385,0.02122324958124752,0.1549037581567476,0.0
0.05842146973865863,0.0212278093371164,0.15486835299353038,0.0
0.05843970876213416,0.021292182361147688,0.1548608428073934,0.0
0.05843032102946293,0.02128011241914182,0.1548393851327163,0.0
0.05841395955252165,0.021288159047145733,0.15500782787893153,0.0
0.05843327145973103,0.021253826767662378,0.15498422443678672,0.0
0.058440781645868016,0.02129084125648037,0.15495069682010376,0.0
0.05841476421532204,0.02124229326752344,0.1549059039242153,0.0
0.058426029494527514,0.02124738946525925,0.15493514000596287,0.0
0.05842227440145902,0.02123210087205182,0.15494318663396678,0.0
0.058418787529323994,0.021231564430184893,0.15491180478475153,0.0
0.05842361550612634,0.02125758186073087,0.15489437042407636,0.0
0.05840832691291891,0.02124953523272696,0.15483267960937971,0.0
0.05842737059919483,0.021217348720711317,0.15479781088802944,0.0
0.05844400029706958,0.021281453523809137,0.15485172329565564,0.0
0.05843219857599718,0.021278234872607573,0.15501962960000393,0.0
0.05843085747132986,0.02127662554700679,0.1549407726455656,0.0
0.05842790704106176,0.021262946279400143,0.15491529165688656,0.0
0.058418787529323994,0.02123290553485221,0.15485681949339145,0.0
0.058424688389860195,0.021252753883928523,0.15486996231913117,0.0
0.05843514900626528,0.02124953523272696,0.15487318097033273,0.0
0.058416641761856285,0.021287622605278805,0.1548696940981977,0.0
0.058431930355063715,0.02128869548901266,0.1548586970399257,0.0
0.05844775539013807,0.02129888788448428,0.15485091863285524,0.0
0.05842281084332595,0.02127072468647059,0.15470607932878486,0.0
0.05841717820372321,0.021225931790582155,0.1547870820506909,0.0
0.05844856005293846,0.021295669233282716,0.15498771130892175,0.0
0.058447218948271144,0.02128789082621227,0.1548208778883073,0.0
0.058454460913474664,0.021281185302875674,0.15486647544699614,0.0
0.058456070239075446,0.021262141616599752,0.15492950736636013,0.0
0.05844158630866841,0.021279039535407964,0.15484957752818793,0.0
0.05844856005293846,0.021307202733421654,0.15484072623738362,0.0
0.05843085747132986,0.02130773917528858,0.1548224872139081,0.0
0.05843085747132986,0.021276357326073327,0.1548629885748611,0.0
0.05845043759947271,0.0212846721750107,0.15487961827273586,0.0
0.0584423909714688,0.02125972762819858,0.15488712845887284,0.0
0.058465457971746675,0.02126562848873478,0.1548882013426067,0.0
0.058423883727059804,0.021228613999916792,0.15488873778447362,0.0
0.05842012863399131,0.021273943337672154,0.15490161238927988,0.0
0.05843970876213416,0.021301570093818917,0.15491180478475153,0.0
0.05843863587840031,0.02128950015181305,0.15490536748234837,0.0
0.05842951636666254,0.021239611058188803,0.1548941022031429,0.0
0.058409399796652765,0.021273138674871763,0.15488981066820748,0.0
0.05842281084332595,0.021278234872607573,0.15486620722606267,0.0
0.05842495661079366,0.021249267011793496,0.15484555421418597,0.0
0.0584150324362555,0.021236660627920702,0.1548460906560529,0.0
0.05841261844785433,0.021246853023392322,0.15485547838872413,0.0
0.05842495661079366,0.021235587744186848,0.15491743742435427,0.0
0.058419592192124385,0.021306398070621263,0.15490161238927988,0.0
0.05842361550612634,0.02127367511673869,0.154830533841912,0.0
0.05843219857599718,0.02125677719793048,0.15475918707361067,0.0
0.05842522483172712,0.021236124186053775,0.15479781088802944,0.0
0.058424688389860195,0.021233978418586066,0.15495096504103723,0.0
0.058434880785331815,0.02129164591928076,0.15484153090018402,0.0
0.058434880785331815,0.021292182361147688,0.1547626739457457,0.0
0.05844480495986997,0.021192404173899195,0.1548823004820705,0.0
0.05845687490187584,0.021223786023114446,0.15485011397005485,0.0
0.05847082239041595,0.021235587744186848,0.15484367666765173,0.0
0.058430589250396396,0.021218689825378636,0.15491287766848538,0.0
0.05841288666878779,0.021191599511098804,0.1548570877143249,0.0
0.0584423909714688,0.02122324958124752,0.15488015471460279,0.0
0.058459557111210474,0.02123344197671914,0.15487693606340122,0.0
0.05843809943653338,0.02121466651137668,0.15484635887698636,0.0
0.05842737059919483,0.021206351662439307,0.15482275543484156,0.0
0.05846089821587779,0.02120876565084048,0.15485681949339145,0.0
0.058454460913474664,0.021288963709946124,0.15482946095817815,0.0
0.05842334728519288,0.021214398290443217,0.15481524524870457,0.0
0.058448291832005,0.021274748000472545,0.154897052633411,0.0
0.05844748716920461,0.021281989965676065,0.15485306440032295,0.0
0.0584364901109326,0.021219226267245563,0.15482195077204117,0.0
0.05842012863399131,0.021203133011237742,0.1548254376441762,0.0
0.05843809943653338,0.021245511918725004,0.15483884869084938,0.0
0.05844453673893651,0.021163436313085118,0.15487827716806854,0.0
0.058455265576275055,0.02114600195240998,0.15485467372592374,0.0
0.05845580201814198,0.021173628708556737,0.1547669654806811,0.0
0.05843675833186606,0.0211768473597583,0.15478064474828776,0.0
0.058455265576275055,0.021149488824545006,0.1548098808300353,0.0
0.05844400029706958,0.02117309226668981,0.15469266828211167,0.0
0.05842817526199522,0.021137955324406068,0.15488686023793938,0.0
0.05843300323879757,0.02115351213854696,0.15486245213299418,0.0
0.05844748716920461,0.02117309226668981,0.15488578735420552,0.0
0.05844641428547075,0.02121252074390897,0.15486245213299418,0.0
0.058452315146006954,0.021200450801903106,0.1549091225754169,0.0
0.05847511392535137,0.02124229326752344,0.15495284258757147,0.0
0.05842361550612634,0.021198036813501932,0.15480532107416642,0.0
0.058431125692263323,0.02120366945310467,0.1547463124688044,0.0
0.05842656593639444,0.021205546999638916,0.15483831224898245,0.0
0.05844024520400109,0.021210643197374725,0.15481095371376916,0.0
0.05845365625067427,0.021252753883928523,0.15481256303936994,0.0
0.05844748716920461,0.021211984302042044,0.15485440550499027,0.0
0.058448291832005,0.021199646139102715,0.15480800328350106,0.0
0.05843756299466645,0.02118838085989724,0.1548039799694991,0.0
0.05846170287867818,0.02125168100019467,0.15478735027162435,0.0
0.05846492152987975,0.021242829709390367,0.15465565379329368,0.0
0.05843970876213416,0.021229686883650647,0.1548755949587339,0.0
0.05842361550612634,0.021237465290721094,0.15482329187670849,0.0
0.05842871170386215,0.021253022104861987,0.154753017992141,0.0
0.05841556887812243,0.021211984302042044,0.15467979367730542,0.0
0.05842871170386215,0.02122834577898333,0.1548246329813758,0.0
0.05843219857599718,0.02124819412805964,0.1548061257369668,0.0
0.058448023611071535,0.02124953523272696,0.1547929829112271,0.0
0.05844158630866841,0.021201791906570424,0.1547943240158944,0.0
0.05844480495986997,0.02125329032579545,0.1547988837717633,0.0
0.0584571431228093,0.02126777425620249,0.1547736710040177,0.0
0.05843675833186606,0.021208497429907016,0.1547841316204228,0.0
0.05842737059919483,0.021181675336560648,0.15476294216667916,0.0
0.05845767956467623,0.021166386743353218,0.1547449713641371,0.0
0.05845258336694042,0.02125329032579545,0.15470312889851676,0.0
0.058439172320267234,0.02123505130231992,0.15471063908465374,0.0
0.05846170287867818,0.0212219084765802,0.15478520450415664,0.0
0.058454460913474664,0.021218689825378636,0.15456338579218218,0.0
0.05846062999494433,0.0212130571857759,0.15476508793414687,0.0
0.058450169378539245,0.021199646139102715,0.1548297291791116,0.0
0.05845472913440813,0.021242561488456903,0.15479083714375938,0.0
0.05844560962267036,0.021239611058188803,0.15478520450415664,0.0
0.05843085747132986,0.021224590685914837,0.15476321038761262,0.0
0.058426834157327905,0.021210374976441262,0.15481819567897268,0.0
0.05843219857599718,0.021258118302597797,0.1547256594569277,0.0
0.05844104986680148,0.021241220383789585,0.1546156888742076,0.0
0.05842871170386215,0.02122110381377981,0.15472297724759307,0.0
0.05842442016892673,0.02124524369779154,0.15469883736358134,0.0
0.05842951636666254,0.02125033989552735,0.15475784596894335,0.0
0.05845151048320656,0.021244975476858077,0.15478869137629167,0.0
0.05845472913440813,0.02125329032579545,0.15475757774800988,0.0
0.05842951636666254,0.021234514860452993,0.15474094805013514,0.0
0.05842710237826137,0.021274748000472545,0.15471922215452458,0.0
0.05843219857599718,0.021261605174732825,0.15473343786399815,0.0
0.05842629771546098,0.021242561488456903,0.15477152523655,0.0
0.058426029494527514,0.021233710197652602,0.15477688965521927,0.0
0.05841342311065472,0.021212252522975508,0.15475114044560676,0.0
0.058437026552799524,0.021183016441227966,0.1546489482699571,0.0
0.05844641428547075,0.021225127127781764,0.1547471171316048,0.0
0.0584179828665236,0.02121976270911249,0.15488846956354016,0.0
0.058424688389860195,0.021184357545895285,0.1548039799694991,0.0
0.05842012863399131,0.021144124405875733,0.1547677701434815,0.0
0.05841288666878779,0.02118247999936104,0.1547168081661234,0.0
0.058420933296791704,0.021216544057910926,0.15475838241081027,0.0
0.05841825108745707,0.021201255464703497,0.15483536181871435,0.0
0.0584394405412007,0.021229686883650647,0.15477930364362044,0.0
0.05843622188999913,0.021185162208695676,0.15475650486427603,0.0
0.058400280284915,0.021233173755785675,0.1547471171316048,0.0
0.05838713745917528,0.02121386184857629,0.15473370608493162,0.0
0.05840805869198545,0.021261605174732825,0.15477501210868502,0.0
0.058410204459453156,0.021219226267245563,0.1547884231553582,0.0
0.05839250187784455,0.021180870673760257,0.15475784596894335,0.0
0.058416641761856285,0.021212252522975508,0.1547736710040177,0.0
0.05841851930839053,0.02121171608110858,0.15475650486427603,0.0
0.05840188961051578,0.021161022324683944,0.15475945529454413,0.0
0.058402157831449246,0.021149488824545006,0.15475140866654022,0.0
0.058420933296791704,0.02116719140615361,0.15474979934093944,0.0
0.05842951636666254,0.02121466651137668,0.15459396297859704,0.0
0.05842066507585824,0.021191599511098804,0.1546422427466205,0.0
0.05841422777345511,0.021190794848298413,0.1548334842721801,0.0
0.0584120820059874,0.021200987243770033,0.1547870820506909,0.0
0.0584032307151831,0.021211984302042044,0.1547656243760138,0.0
0.05839652519184651,0.02119562282510076,0.1547302192127966,0.0
0.05841771464559014,0.021228077558049865,0.15473692473613318,0.0
0.05840832691291891,0.021233173755785675,0.15479995665549715,0.0
0.05839518408717919,0.02121252074390897,0.1547176128289238,0.0
0.0583914289941107,0.02120661988337277,0.15465860422356179,0.0
0.05841476421532204,0.02125114455832774,0.15466235931663028,0.0
0.05838713745917528,0.02116289987121819,0.15463446433955005,0.0
0.05838338236610679,0.021277430209807182,0.15463017280461464,0.0
0.05839518408717919,0.021281185302875674,0.15468864496810972,0.0
0.058416641761856285,0.021228613999916792,0.15475757774800988,0.0
0.05842951636666254,0.021215202953243608,0.15473209675933083,0.0
0.05843085747132986,0.0212219084765802,0.15467147882836804,0.0
0.05843300323879757,0.021232369092985284,0.15473880228266743,0.0
0.058405644703584274,0.021220030930045954,0.15469266828211167,0.0
0.058418787529323994,0.021234514860452993,0.15451108271015676,0.0
0.058417446424656676,0.02120581522057238,0.15473209675933083,0.0
0.05840993623851969,0.021208497429907016,0.15473585185239933,0.0
0.05842227440145902,0.021228077558049865,0.15469454582864592,0.0
0.058416641761856285,0.021183552883094894,0.15468864496810972,0.0
0.058426834157327905,0.02119428172043344,0.1546704059446342,0.0
0.05841047268038662,0.02120366945310467,0.15466262753756374,0.0
0.058411545564120475,0.021198841476302323,0.154656994897961,0.0
0.05841905575025746,0.021219226267245563,0.1546304410255481,0.0
0.05842200618052556,0.021200450801903106,0.15468301232850698,0.0
0.05842200618052556,0.021177115580691765,0.154694009386779,0.0
0.058434076122531424,0.021158071894415844,0.15466718729343262,0.0
0.058409399796652765,0.021171482941089028,0.15463580544421737,0.0
0.0584032307151831,0.02112347139399903,0.15459020788552855,0.0
0.05842281084332595,0.02121466651137668,0.15465592201422715,0.0
0.05840457181985042,0.02120876565084048,0.15461542065327413,0.0
0.05842281084332595,0.02118462576682875,0.1546266859324796,0.0
0.05845285158787388,0.02117818846442562,0.15457250530391994,0.0
0.05845875244841008,0.02115190281294618,0.15469427760771245,0.0
0.0584335396806645,0.021171214720155564,0.15467737968890424,0.0
0.05843756299466645,0.021177652022558693,0.15461998040914302,0.0
0.058426029494527514,0.021144392626809196,0.15448801570987888,0.0
0.05843970876213416,0.02120232834843735,0.15450947338455598,0.0
0.05843434434346489,0.02118543042962914,0.15476240572481223,0.0
0.05842737059919483,0.021175506255090983,0.15467603858423692,0.0
0.058442927413335725,0.021167727848020537,0.1547618692829453,0.0
0.05842871170386215,0.02115565790601467,0.15473209675933083,0.0
0.05842066507585824,0.021171482941089028,0.15463768299075162,0.0
0.058422542622392486,0.02119642748790115,0.15465833600262832,0.0
0.058419592192124385,0.021185966871496067,0.1546540444676929,0.0
0.05842120151772517,0.021180870673760257,0.15466986950276726,0.0
0.05842817526199522,0.02118623509242953,0.1546784525726381,0.0
0.05843139391319679,0.021156730789748526,0.1546502893746244,0.0
0.05842576127359405,0.021160485882817017,0.1546518987002252,0.0
0.058426029494527514,0.02119267239483266,0.15461837108354223,0.0
0.058403498936116564,0.02113071335920255,0.1546060329206029,0.0
0.05842012863399131,0.021140101091873777,0.15461434776954028,0.0
0.05842710237826137,0.021155389685081207,0.1545875256761939,0.0
0.05840484004078388,0.021145197289609587,0.15460361893220173,0.0
0.05840993623851969,0.021167727848020537,0.15461998040914302,0.0
0.05842817526199522,0.021225395348715228,0.15465270336302558,0.0
0.05844641428547075,0.021211179639241653,0.15462293083941112,0.0
0.05843005280852947,0.02117228760388942,0.15456070358284754,0.0
0.058426834157327905,0.02119642748790115,0.15450062209375168,0.0
0.05842817526199522,0.02118838085989724,0.1545041089658867,0.0
0.058426029494527514,0.021125348940533275,0.15476642903881419,0.0
0.058410740901320084,0.0211709464992221,0.15472109970105882,0.0
0.05840591292451774,0.021200987243770033,0.15467711146797078,0.0
0.05841905575025746,0.021203133011237742,0.15463473256048352,0.0
0.05842495661079366,0.021177115580691765,0.15460174138566748,0.0
0.05844265919240226,0.021221372034713273,0.15462293083941112,0.0
0.058426834157327905,0.02117309226668981,0.15460469181593559,0.0
0.05842951636666254,0.021192940615766123,0.15460764224620369,0.0
0.05843461256439835,0.021147074836143833,0.15458108837379078,0.0
0.05843675833186606,0.021131249801069476,0.15456231290844832,0.0
0.05845472913440813,0.02115485324321428,0.1545883303389943,0.0
0.05843622188999913,0.021183016441227966,0.15458645279246006,0.0
0.058425493052660586,0.02114090575467417,0.1545440738849728,0.0
0.05843300323879757,0.021139296429073386,0.15457545573418804,0.0
0.058450169378539245,0.021168264289887464,0.15459181721112933,0.0
0.05845499735534159,0.02117818846442562,0.15459825451353246,0.0
0.05842629771546098,0.021157535452548917,0.1545440738849728,0.0
0.05842522483172712,0.021163436313085118,0.1544893568145462,0.0
0.058459020669343546,0.021147879498944224,0.15458672101339352,0.0
0.05843729477373299,0.021200182580969642,0.1545617764665814,0.0
0.058442927413335725,0.021169873615488246,0.15441318206944252,0.0
0.0584718952741498,0.021209033871773943,0.1544501965582605,0.0
0.05845499735534159,0.021151366371079252,0.15468006189823888,0.0
0.058439172320267234,0.02115780367348238,0.15463312323488274,0.0
0.05842200618052556,0.02119857325536886,0.1545625811293818,0.0
0.05843836765746684,0.021200182580969642,0.15448586994241117,0.0
0.05844346385520265,0.02116289987121819,0.1546194439672761,0.0
0.05843675833186606,0.021132590905736794,0.15464948471182402,0.0
0.05844614606453729,0.021184357545895285,0.15465860422356179,0.0
0.058421737959592095,0.02118757619709685,0.15460254604846788,0.0
0.05843970876213416,0.021205010557771988,0.1545218115474953,0.0
0.05841851930839053,0.021168264289887464,0.15451322847762447,0.0
0.058424688389860195,0.02120152368563696,0.15450840050082212,0.0
0.05843863587840031,0.02118703975522992,0.15450518184962056,0.0
0.05843595366906567,0.02117523803415752,0.15452288443122916,0.0
0.058426834157327905,0.02118703975522992,0.1545108144892233,0.0
0.058419592192124385,0.0211620952084178,0.15451912933816067,0.0
0.05844051342493455,0.02114600195240998,0.15435390524314704,0.0
0.05844265919240226,0.021119716300930538,0.15446897202360296,0.0
0.05844990115760578,0.021174701592290592,0.154616493537008,0.0
0.058424688389860195,0.021171482941089028,0.15452234798936224,0.0
0.058434076122531424,0.021169605394554782,0.15455748493164598,0.0
0.058442927413335725,0.021137150661605677,0.15457813794352268,0.0
0.05843139391319679,0.021181407115627184,0.15455533916417827,0.0
0.058410740901320084,0.021124812498666348,0.15451403314042486,0.0
0.05843541722719874,0.02119428172043344,0.1545491700827086,0.0
0.05843890409933377,0.021181675336560648,0.15449096614014698,0.0
0.058453119808807345,0.021188649080830704,0.1544665580352018,0.0
0.05843005280852947,0.02118247999936104,0.15453602725696888,0.0
0.058425493052660586,0.021125885382400202,0.154453951651329,0.0
0.058442122750535334,0.021170410057355173,0.15459530408326436,0.0
0.058454460913474664,0.02123129620925143,0.15453388148950117,0.0
0.058434076122531424,0.02120661988337277,0.15450840050082212,0.0
0.05841610531998936,0.021182211778427575,0.1544560974187967,0.0
0.058448828273871926,0.021165582080552827,0.15439467482503352,0.0
0.05845365625067427,0.021162363429351263,0.1544982081053505,0.0
0.05842012863399131,0.021115961207862046,0.1545596306991137,0.0
0.05842281084332595,0.021135004894137967,0.1544636076049337,0.0
0.05843541722719874,0.021151634592012716,0.15446763091893564,0.0
0.05842710237826137,0.021127494708000984,0.15445797496533095,0.0
0.058427638820128296,0.021092357765717242,0.15444939189546011,0.0
0.05843005280852947,0.021117838754396292,0.15443785839532118,0.0
0.05844775539013807,0.021148147719877688,0.15446468048866754,0.0
0.05844856005293846,0.021185162208695676,0.1544560974187967,0.0
0.05843461256439835,0.02113017691733562,0.15446253472119983,0.0
0.05844480495986997,0.02115351213854696,0.15441827826717833,0.0
0.05845043759947271,0.02112856759173484,0.15441961937184565,0.0
0.058431930355063715,0.02108994377731607,0.15446333938400023,0.0
0.0584364901109326,0.021144929068676124,0.15440942697637403,0.0
0.05844453673893651,0.021161558766550872,0.15427504828870872,0.0
0.05845928889027701,0.021138491766272995,0.154472458895738,0.0
0.058440781645868016,0.021071972974774002,0.15449767166348358,0.0
0.058452315146006954,0.0211591447781497,0.15447996908187497,0.0
0.05847511392535137,0.021226736453382546,0.15447862797720766,0.0
0.058448291832005,0.021177920243492156,0.1543941383831666,0.0
0.05845633846000891,0.021151366371079252,0.15443061643011766,0.0
0.05846223932054511,0.021195086383233832,0.1544177418253114,0.0
0.058432735017864106,0.021233173755785675,0.15448318773307654,0.0
0.05841556887812243,0.021200987243770033,0.15445341520946207,0.0
0.05842871170386215,0.021169605394554782,0.15445743852346402,0.0
0.0584571431228093,0.021244170814057686,0.1543608789874171,0.0
0.05843380790159796,0.021199646139102715,0.15435470990594743,0.0
0.058432735017864106,0.021138491766272995,0.1544332986394523,0.0
0.058437831215599916,0.0211620952084178,0.15440781765077324,0.0
0.058418787529323994,0.021137955324406068,0.1543453221732762,0.0
0.05843541722719874,0.02113366378947065,0.154405940104239,0.0
0.058420933296791704,0.021126153603333666,0.15440620832517246,0.0
0.05842200618052556,0.021142246859341487,0.15432922891726839,0.0
0.05842951636666254,0.021136882440672213,0.15440701298797285,0.0
0.058435685448132206,0.021167459627087073,0.15445046477919397,0.0
0.05843595366906567,0.021124544277732884,0.1544236426858476,0.0
0.05843595366906567,0.021108719242658527,0.1544472461279924,0.0
0.058450974041339636,0.021077069172509812,0.15438394598769498,0.0
0.0584600935530774,0.02115565790601467,0.1542581503699005,0.0
0.05842817526199522,0.021122666731198638,0.15445743852346402,0.0
0.05845151048320656,0.021156730789748526,0.15454729253617436,0.0
0.058464116867079356,0.021149488824545006,0.15445958429093173,0.0
0.05843300323879757,0.021110596789192772,0.15448211484934268,0.0
0.058454460913474664,0.02115699901068199,0.15450679117522134,0.0
0.058444268518003044,0.021134200231337576,0.15444536858145816,0.0
0.05843809943653338,0.021080287823711377,0.15435470990594743,0.0
0.0584630439833455,0.021165582080552827,0.15451912933816067,0.0
0.05845794778560969,0.02118033423189333,0.1544598525118652,0.0
0.05845472913440813,0.021175774476024447,0.15445046477919397,0.0
0.0584600935530774,0.021147074836143833,0.15448613816334464,0.0
0.0584423909714688,0.02118838085989724,0.15448399239587693,0.0
0.058461166436811256,0.02121466651137668,0.15441345029037598,0.0
0.05844748716920461,0.02115485324321428,0.15441505961597676,0.0
0.058462507541478574,0.021184893987762212,0.15453093105923307,0.0
0.05846223932054511,0.02118918552269763,0.1543498819291451,0.0
0.05846089821587779,0.021184893987762212,0.15439279727849928,0.0
0.058432735017864106,0.021185966871496067,0.1545336132685677,0.0
0.0584453414017369,0.021166923185220145,0.15454058701283777,0.0
0.05847109061134941,0.021158071894415844,0.1545483654199082,0.0
0.05847001772761556,0.021169873615488246,0.15453414971043464,0.0
0.0584541926925412,0.02122405424404791,0.1545218115474953,0.0
0.05846438508801282,0.021226468232449083,0.15449472123321548,0.0
0.05845767956467623,0.021185162208695676,0.15448023730280844,0.0
0.0584630439833455,0.021202060127503888,0.15448077374467536,0.0
0.05846572619268014,0.0212219084765802,0.15446763091893564,0.0
0.05845365625067427,0.021164509196818972,0.15443705373252078,0.0
0.058437026552799524,0.02114600195240998,0.154453951651329,0.0
0.05844963293667232,0.021204742336838524,0.15445073300012743,0.0
0.05844024520400109,0.02120071902283657,0.15444670968612548,0.0
0.05845794778560969,0.021192940615766123,0.15450840050082212,0.0
0.05845982533214394,0.021214398290443217,0.15444751434892587,0.0
0.0584630439833455,0.021205546999638916,0.15440781765077324,0.0
0.05845472913440813,0.02118838085989724,0.1543490772663447,0.0
0.05845982533214394,0.021242025046589976,0.15438421420862844,0.0
0.05845928889027701,0.02126777425620249,0.15447996908187497,0.0
0.05844748716920461,0.02124148860472305,0.1543777769062253,0.0
0.05844963293667232,0.02127072468647059,0.15447487288413916,0.0
0.05845285158787388,0.021346094768773888,0.15445261054666168,0.0
0.05846197109961165,0.021315785803292492,0.15452127510562838,0.0
0.05846492152987975,0.021305861628754336,0.15448399239587693,0.0
0.05846572619268014,0.021332683722100704,0.15443195753478497,0.0
0.05848852497202455,0.021359237594513608,0.15445046477919397,0.0
0.05848128300682103,0.021338048140769977,0.15442793422078302,0.0
0.05847833257655293,0.021321150221961765,0.1544451003605247,0.0
0.05848047834402064,0.021344485443173106,0.15443356686038576,0.0
0.05845499735534159,0.021313908256758246,0.15439842991810201,0.0
0.058466262634547066,0.021305056965953945,0.15440701298797285,0.0
0.058474309262550976,0.02127501622140601,0.15437831334809224,0.0
0.058484501658022596,0.02130183831475238,0.15444375925585738,0.0
0.05846518975081321,0.021340730350104614,0.15443866305812157,0.0
0.05847699147188561,0.02129808322168389,0.15434156708020771,0.0
0.058478600797486395,0.021220030930045954,0.15421201636934476,0.0
0.05849013429762533,0.021311762489290537,0.15433325223127034,0.0
0.05849496227442768,0.021361115141047854,0.15447299533760492,0.0
0.058493889390693825,0.02133831636170344,0.1543343251150042,0.0
0.05847511392535137,0.021320345559161374,0.15429409197498464,0.0
0.05848530632082299,0.02133536593143534,0.15436490230141905,0.0
0.05846384864614589,0.021286817942478414,0.15436731628982023,0.0
0.05847725969281908,0.021275284442339473,0.15429650596338582,0.0
0.05848181944868796,0.021273138674871763,0.15439091973196503,0.0
0.0584718952741498,0.021306398070621263,0.1544332986394523,0.0
0.05847457748348444,0.02132731930343143,0.15438287310396112,0.0
0.058459020669343546,0.02127206579113791,0.15436222009208442,0.0
0.05847806435561947,0.02127367511673869,0.15435310058034665,0.0
0.05850247246056467,0.021305861628754336,0.15432574204513336,0.0
0.05850998264670165,0.021326246419697575,0.1543179636380629,0.0
0.05847404104161751,0.021273406895805227,0.15429918817272045,0.0
0.05848637920455684,0.02129003659367998,0.15418009807826258,0.0
0.05846787196014785,0.021296205675149643,0.15432332805673218,0.0
0.05846518975081321,0.021280380640075282,0.15435310058034665,0.0
0.05848530632082299,0.02133375660583456,0.15434854082447777,0.0
0.058479405460286786,0.021310421384623218,0.15439896635996894,0.0
0.05848530632082299,0.02131846801262713,0.15427799871897682,0.0
0.058475650367218295,0.02129084125648037,0.15424822619536235,0.0
0.05848262411148835,0.02126777425620249,0.15426378300950325,0.0
0.05848396521615567,0.021296205675149643,0.15426163724203554,0.0
0.05848530632082299,0.021285745058744556,0.15430830768445822,0.0
0.05850622755363316,0.021353336733977407,0.15427853516084375,0.0
0.058487988530157624,0.021342876117572324,0.1542079930553428,0.0
0.05848906141389148,0.02130183831475238,0.1542345469277557,0.0
0.05848181944868796,0.02133831636170344,0.154464948709601,0.0
0.05848503809988952,0.021310957826490146,0.15434854082447777,0.0
0.05848503809988952,0.02132866040809875,0.15434451751047581,0.0
0.05848986607669187,0.021350118082775843,0.15435739211528207,0.0
0.05847752791375254,0.02128950015181305,0.15431394032406096,0.0
0.058507300437367016,0.021346094768773888,0.15430643013792397,0.0
0.058506495774566625,0.021350386303709307,0.15428229025391224,0.0
0.058498985588429635,0.021356287164245508,0.15428524068418034,0.0
0.05848530632082299,0.02134394900130618,0.15421952655548174,0.0
0.058477796134686004,0.02128011241914182,0.15417982985732911,0.0
0.058484501658022596,0.021314444698625173,0.15425546816056587,0.0
0.05848772030922416,0.021364065571315954,0.15423481514868917,0.0
0.05849952203029656,0.02137828128078953,0.15425332239309816,0.0
0.05849549871629461,0.02137023465278562,0.15424071600922537,0.0
0.058501936018697735,0.02132946507089914,0.1542058472878751,0.0
0.05850247246056467,0.021339389245437296,0.1542871182307146,0.0
0.05852232080964098,0.021367552443450982,0.15425064018376353,0.0
0.05849844914656271,0.02131122604742361,0.15420960238094358,0.0
0.05852419835617523,0.021367016001584055,0.15420611550880856,0.0
0.058496035158161534,0.021328928629032212,0.15425788214896705,0.0
0.0584748457044179,0.021326246419697575,0.15423052361375375,0.0
0.05851320129790322,0.02133107439649992,0.15422328164855023,0.0
0.058514542402570535,0.021333488384901095,0.1541009729028908,0.0
0.05848476987895606,0.021287622605278805,0.15428899577724883,0.0
0.058498985588429635,0.02135280029211048,0.15431850007992984,0.0
0.05849228006509304,0.021371575757452937,0.15427933982364414,0.0
0.05848906141389148,0.02131927267542752,0.15424554398602772,0.0
0.058486647425490305,0.02129084125648037,0.15421201636934476,0.0
0.05850408178616545,0.021317663349826738,0.15424527576509425,0.0
0.058505154669899306,0.02136728422251752,0.15431447676592788,0.0
0.058493084727893434,0.021353873175844335,0.15426619699790442,0.0
0.05850756865830048,0.02137989060639031,0.15416749169438979,0.0
0.05850408178616545,0.02137023465278562,0.1541393284963761,0.0
0.0585089097629678,0.021361383361981318,0.15417017390372442,0.0
0.058505154669899306,0.021358969373580144,0.15419645955520386,0.0
0.05851400596070361,0.021332683722100704,0.1542530541721647,0.0
0.05850917798390126,0.021336975257036123,0.15419163157840152,0.0
0.058516688170038245,0.02131417647769171,0.15397651838976364,0.0
0.05852795344924372,0.02132007733822791,0.15418573071786532,0.0
0.0585177610537721,0.02135145918744316,0.15430857590539168,0.0
0.05852527123990908,0.02130532518688741,0.154213893915879,0.0
0.05852580768177601,0.021315785803292492,0.1542278414044191,0.0
0.05851856571657249,0.021369161769051764,0.15418036629919604,0.0
0.05851990682123981,0.021357628268912826,0.15427182963750716,0.0
0.05851507884443746,0.021340998571038078,0.1542442028813604,0.0
0.05852312547244137,0.02134475366410657,0.15421711256708057,0.0
0.05853600007724763,0.021311762489290537,0.15420343329947392,0.0
0.058527685228310256,0.021355214280511653,0.154250908404697,0.0
0.05851937037937288,0.021368625327184837,0.154224890974151,0.0
0.05851990682123981,0.02135280029211048,0.15416427304318822,0.0
0.05851400596070361,0.021355214280511653,0.15417687942706101,0.0
0.05851829749563903,0.021346094768773888,0.15418117096199643,0.0
0.058520979704973664,0.021339925687304223,0.15416829635719018,0.0
0.05853170854231221,0.021339389245437296,0.1542205994392156,0.0
0.05853626829818109,0.02131632224515942,0.1541835849503976,0.0
0.05853036743764489,0.021327587524364894,0.15415381242678314,0.0
0.0585236619143083,0.021313908256758246,0.15416749169438979,0.0
0.058529026332977574,0.0212787713144745,0.15420370152040738,0.0
0.058535731856314166,0.021266701372468635,0.1541835849503976,0.0
0.05852607590270947,0.02129084125648037,0.15415649463611777,0.0
0.058518833937505954,0.02132731930343143,0.15406288553033895,0.0
0.05852580768177601,0.021336438815169195,0.15416105439198666,0.0
0.05851212841416936,0.021258118302597797,0.1542530541721647,0.0
0.058507300437367016,0.021285745058744556,0.15422167232294945,0.0
0.05851320129790322,0.02131122604742361,0.1542492990790962,0.0
0.058534122530713384,0.021352532071177016,0.1542197947764152,0.0
0.05852419835617523,0.021306398070621263,0.15415086199651504,0.0
0.05853680474004802,0.021255972535130088,0.15421630790428018,0.0
0.058555311984457015,0.021321150221961765,0.1542332058230884,0.0
0.05851293307696975,0.021286281500611487,0.15407039571647593,0.0
0.05853600007724763,0.021307202733421654,0.15418707182253263,0.0
0.05855155689138852,0.02129513279141579,0.15431420854499442,0.0
0.05853224498417914,0.021314444698625173,0.1542943601959181,0.0
0.05852151614684059,0.021325709977830648,0.1541969959970708,0.0
0.05850998264670165,0.021297278558883498,0.15418036629919604,0.0
0.058529026332977574,0.021319809117294447,0.15422596385788487,0.0
0.05850783687923394,0.021320613780094838,0.15420048286920582,0.0
0.058496303379095,0.021295669233282716,0.1542492990790962,0.0
0.05851132375136897,0.021344485443173106,0.15424259355575962,0.0
0.058518833937505954,0.02134180323383847,0.15422515919508448,0.0
0.05852714878644333,0.02134850875717506,0.15415676285705124,0.0
0.05851132375136897,0.021269651802736735,0.15418009807826258,0.0
0.0585118601932359,0.021291377698347297,0.15425064018376353,0.0
0.05852017504217327,0.021327051082497966,0.1542538588349651,0.0
0.05849442583256075,0.02130398408222009,0.15433325223127034,0.0
0.05849201184415958,0.02127367511673869,0.1541342322986403,0.0
0.058509446204834725,0.021282258186609528,0.15408058811194755,0.0
0.05852017504217327,0.021294864570482325,0.15432305983579872,0.0
0.0585177610537721,0.021305593407820872,0.1542841678004465,0.0
0.05851051908856858,0.02132436887316333,0.1542560046024328,0.0
0.0584992538093631,0.021336975257036123,0.15422971895095336,0.0
0.05850703221643355,0.021304520524087017,0.15421738078801403,0.0
0.058498985588429635,0.021286281500611487,0.1541991417645385,0.0
0.05850676399550009,0.02135494605957819,0.15423079183468721,0.0
0.05850327712336506,0.0213629926875821,0.1542109434856109,0.0
0.058525539460842546,0.02138498680412612,0.154202896857607,0.0
0.058499790251230026,0.021367016001584055,0.15413020898463833,0.0
0.05851266485603629,0.02129513279141579,0.15412994076370487,0.0
0.058514542402570535,0.021334024826768022,0.1541111652983624,0.0
0.05852527123990908,0.021412881781206344,0.15426083257923515,0.0
0.05851427418163707,0.021348776978108525,0.15423052361375375,0.0
0.05851293307696975,0.02132597819876411,0.15420772483440934,0.0
0.05851937037937288,0.021330806175566458,0.1541873400434661,0.0
0.05853144032137875,0.021356018943312044,0.154117870821699,0.0
0.05850837332110087,0.021281989965676065,0.1541983371017381,0.0
0.05852205258870752,0.02131122604742361,0.15424903085816274,0.0
0.0585266123445764,0.021308007396222045,0.15407629657701213,0.0
0.05853385430977992,0.02129593745421618,0.15420101931107275,0.0
0.058534927193513775,0.021274748000472545,0.15431018523099246,0.0
0.05853117210044528,0.021272602233004836,0.1542205994392156,0.0
0.0585295627748445,0.021290573035546906,0.1542315964974876,0.0
0.058517492832838636,0.021286013279678023,0.15430374792858934,0.0
0.058515347065370926,0.02125033989552735,0.1542273049625522,0.0
0.05853600007724763,0.02126187339566629,0.15417956163639565,0.0
0.05854833824018696,0.021248998790860032,0.15421067526467744,0.0
0.05852446657710869,0.021244975476858077,0.15418546249693185,0.0
0.058522589030574446,0.021214934732310144,0.1542058472878751,0.0
0.05854672891458618,0.021270188244603663,0.1542058472878751,0.0
0.05852634412364294,0.02124014750005573,0.15413691450797493,0.0
0.058526880565509865,0.021254899651396233,0.15422006299734867,0.0
0.05854672891458618,0.02131712690795981,0.1542648558932371,0.0
0.05853975517031612,0.021320613780094838,0.15413959671730956,0.0
0.05854699713551964,0.02130398408222009,0.15409694958888884,0.0
0.058532781426046065,0.02126777425620249,0.1543128674403271,0.0
0.05852822167017718,0.021315249361425564,0.15421577146241325,0.0
0.05854619247271925,0.021291914140214224,0.15426083257923515,0.0
0.058514810623504,0.02128011241914182,0.15427799871897682,0.0
0.05850837332110087,0.021321686663828693,0.15421067526467744,0.0
0.05851507884443746,0.02131846801262713,0.1541835849503976,0.0
0.0585207114840402,0.021315249361425564,0.15429355553311772,0.0
0.05852634412364294,0.021320345559161374,0.1542686109863056,0.0
0.058518833937505954,0.0213031794194197,0.15424903085816274,0.0
0.05851346951883668,0.021296205675149643,0.15423776557895727,0.0
0.058529026332977574,0.02131283537302439,0.15423186471842107,0.0
0.05852339369337484,0.021361919803848245,0.15418304850853068,0.0
0.05850381356523199,0.021243902593124222,0.15418036629919604,0.0
0.05852607590270947,0.021268042477135953,0.1542492990790962,0.0
0.05853680474004802,0.021282794628476456,0.154232401160288,0.0
0.05852848989111065,0.02127957597727489,0.15415810396171856,0.0
0.05850166779776427,0.02125114455832774,0.15416775991532325,0.0
0.05851990682123981,0.021278234872607573,0.15424232533482615,0.0
0.05852017504217327,0.021270992907404054,0.15421577146241325,0.0
0.05852232080964098,0.02125248566299506,0.1541688327990571,0.0
0.058540828054049976,0.021312298931157464,0.1540905122864857,0.0
0.05852714878644333,0.021284135733143774,0.1540543024604681,0.0
0.05852875811204411,0.02126348272126707,0.15426807454443867,0.0
0.058542973821517685,0.02129969254728467,0.15420048286920582,0.0
0.05853385430977992,0.02129164591928076,0.15425359061403163,0.0
0.05854029161218305,0.02132517353596372,0.15427397540497487,0.0
0.05853144032137875,0.021300497210085062,0.15416480948505515,0.0
0.05852232080964098,0.02129379168674847,0.15417285611305906,0.0
0.05853975517031612,0.02131632224515942,0.1541822438457303,0.0
0.05853734118191495,0.02135575072237858,0.15408192921661487,0.0
0.05852205258870752,0.02135199562931009,0.15408058811194755,0.0
0.0585325132051126,0.021251412779261205,0.1542841678004465,0.0
0.05853948694938266,0.02131122604742361,0.15416427304318822,0.0
0.058532781426046065,0.02126428738406746,0.1541784887526618,0.0
0.05851937037937288,0.021226468232449083,0.15415300776398275,0.0
0.05855048400765467,0.02126643315153517,0.1541422789266442,0.0
0.0585325132051126,0.021274211558605618,0.15408863473995146,0.0
0.05852741700737679,0.021207156325239698,0.15410794664716085,0.0
0.058540023391249585,0.02128306284940992,0.15403311300672448,0.0
0.05853814584471534,0.02127796665167411,0.1541983371017381,0.0
0.058550215786721205,0.021257313639797406,0.1542294507300199,0.0
0.058550215786721205,0.021223517802180982,0.15417151500839174,0.0
0.05853036743764489,0.021249267011793496,0.1541894858109338,0.0
0.058545924251785786,0.021248730569926568,0.15414925267091426,0.0
0.05853385430977992,0.02124014750005573,0.15411062885649549,0.0
0.05853090387951182,0.021260800511932434,0.1541414742638438,0.0
0.058522589030574446,0.021293523465815006,0.15414952089184772,0.0
0.05853948694938266,0.021276893767940255,0.1541570310779847,0.0
0.058539218728449194,0.021252753883928523,0.1541725878921256,0.0
0.05853224498417914,0.021285745058744556,0.15414201070571074,0.0
0.05853680474004802,0.021268847139936344,0.15416320015945437,0.0
0.05851615172817132,0.021217348720711317,0.1541739289967929,0.0
0.058510787309502044,0.02122995510458411,0.15416990568279096,0.0
0.05850783687923394,0.021256508976997015,0.1541637366013213,0.0
0.058525539460842546,0.021285745058744556,0.15408487964688297,0.0
0.05854351026338461,0.021273406895805227,0.15417419721772638,0.0
0.058514810623504,0.021242829709390367,0.15422006299734867,0.0
0.0585177610537721,0.021281453523809137,0.15408729363528414,0.0
0.058520979704973664,0.02126133695379936,0.15402882147178906,0.0
0.058538682286582266,0.021257313639797406,0.15418841292719995,0.0
0.05853439075164685,0.02123800173258802,0.15412806321717062,0.0
0.05852795344924372,0.021190258406431486,0.15395506071508655,0.0
0.05851856571657249,0.02121386184857629,0.15421067526467744,0.0
0.05851400596070361,0.021209302092707407,0.15426083257923515,0.0
0.058522589030574446,0.021238538174454948,0.15419163157840152,0.0
0.05852822167017718,0.021243902593124222,0.1541540806477166,0.0
0.058540828054049976,0.02129164591928076,0.15415166665931543,0.0
0.05852875811204411,0.02128386751221031,0.15414415647317845,0.0
0.058538682286582266,0.021302911198486235,0.15414737512438,0.0
0.058550215786721205,0.021262141616599752,0.1541149203914309,0.0
0.05852741700737679,0.021254899651396233,0.15413745094984185,0.0
0.05853895050751573,0.021278234872607573,0.1541607861710532,0.0
0.058540023391249585,0.02129969254728467,0.15412806321717062,0.0
0.0585413644959169,0.021278234872607573,0.1541851942759984,0.0
0.05854029161218305,0.02130103365195199,0.15417044212465789,0.0
0.05851910215843942,0.021280648861008746,0.1541170661588986,0.0
0.058514810623504,0.021233173755785675,0.15415220310118236,0.0
0.05853680474004802,0.021286013279678023,0.15420826127627627,0.0
0.058520979704973664,0.021260800511932434,0.15416051795011973,0.0
0.058519638600306345,0.02125624075606355,0.1541709785665248,0.0
0.05851829749563903,0.021294864570482325,0.15422810962535258,0.0
0.058516688170038245,0.02131632224515942,0.1541709785665248,0.0
0.05853600007724763,0.021325709977830648,0.15420370152040738,0.0
0.05852848989111065,0.021323295989429475,0.1541806345201295,0.0
0.058505154669899306,0.02128306284940992,0.1541385238335757,0.0
0.05851856571657249,0.021297010337950034,0.15422998717188682,0.0
0.058552361554188914,0.021337243477969586,0.15419458200866962,0.0
0.05855933529845897,0.021334293047701486,0.15418894936906688,0.0
0.05852017504217327,0.02128950015181305,0.15426029613736822,0.0
0.05853760940284841,0.021306398070621263,0.15415944506638588,0.0
0.05855128867045506,0.021327051082497966,0.15407093215834286,0.0
0.058531976763245674,0.0213031794194197,0.1542774622771099,0.0
0.05853734118191495,0.021369429989985228,0.1542656605560375,0.0
0.058534927193513775,0.02134475366410657,0.15421416213681247,0.0
0.05853600007724763,0.021353873175844335,0.15414737512438,0.0
0.058553166216989305,0.021347972315308134,0.15415542175238392,0.0
0.058544314926185004,0.021292182361147688,0.1541969959970708,0.0
0.058534927193513775,0.0213002289891516,0.15417312433399252,0.0
0.05852151614684059,0.021290304814613442,0.15411357928676359,0.0
0.05852124792590713,0.021286281500611487,0.15414281536851113,0.0
0.05854538780991886,0.021305593407820872,0.15422381809041716,0.0
0.05852822167017718,0.021303715861286626,0.15416775991532325,0.0
0.05853760940284841,0.021304252303153554,0.15418465783413146,0.0
0.05853090387951182,0.021314444698625173,0.1542042379622743,0.0
0.058540023391249585,0.021370771094652546,0.1540685181699417,0.0
0.05854565603085232,0.021392496990263105,0.15415729929891817,0.0
0.05853760940284841,0.021324905315030257,0.15429704240525274,0.0
0.05853117210044528,0.021262409837533216,0.15420611550880856,0.0
0.05851641994910478,0.021292182361147688,0.15420826127627627,0.0
0.05851990682123981,0.021337243477969586,0.15420236041574006,0.0
0.05855504376352355,0.021339925687304223,0.15413530518237414,0.0
0.058548874682053886,0.021308007396222045,0.15416454126412169,0.0
0.05851615172817132,0.02128011241914182,0.15420638372974202,0.0
0.0585295627748445,0.021338584582636905,0.15416480948505515,0.0
0.058545119588985395,0.021346631210640815,0.1541747336595933,0.0
0.058538682286582266,0.021313640035824782,0.15416239549665398,0.0
0.05851615172817132,0.021323832431296402,0.15415273954304928,0.0
0.05851856571657249,0.021369966431852155,0.15411599327516476,0.0
0.05852151614684059,0.02131283537302439,0.1541186754844994,0.0
0.058548874682053886,0.021331879059300313,0.1542012875320062,0.0
0.05853895050751573,0.021302374756619308,0.1541865353806657,0.0
0.05852634412364294,0.02130183831475238,0.15417151500839174,0.0
0.058524734798042155,0.021312298931157464,0.15412591744970291,0.0
0.05853090387951182,0.021319540896360983,0.15411465217049744,0.0
0.058510787309502044,0.021302106535685844,0.1541194801472998,0.0
0.05853117210044528,0.021364602013182882,0.15417687942706101,0.0
0.058515347065370926,0.02135655538517897,0.15416749169438979,0.0
0.05849442583256075,0.021345826547840424,0.15398322391310024,0.0
0.058509446204834725,0.021379622385456848,0.1539295797264075,0.0
0.05850703221643355,0.021363260908515563,0.15429033688191615,0.0
0.058506495774566625,0.021385791466926513,0.15420450618320777,0.0
0.05853009921671143,0.021319809117294447,0.1542332058230884,0.0
0.058493084727893434,0.021197500371635005,0.1541460340197127,0.0
0.058489597855758406,0.021302374756619308,0.15404169607659532,0.0
0.05850783687923394,0.021328392187165285,0.15401192355298085,0.0
0.05851507884443746,0.021359237594513608,0.15406073976287124,0.0
0.05850005847216349,0.0213570918270459,0.15419887354360504,0.0
0.058515347065370926,0.02137747661798914,0.1542197947764152,0.0
0.058501131355897344,0.021360578699180927,0.15409829069355616,0.0
0.0585089097629678,0.021276357326073327,0.15409560848422152,0.0
0.05853814584471534,0.021342071454771933,0.15414254714757766,0.0
0.05853224498417914,0.021372648641186792,0.1541031186703585,0.0
0.05851856571657249,0.021364065571315954,0.15410043646102387,0.0
0.058544314926185004,0.021381499931991094,0.15413879205450917,0.0
0.05853224498417914,0.02139947073453316,0.154077369460746,0.0
0.05851990682123981,0.021360042257314,0.15409587670515498,0.0
0.05851641994910478,0.02129379168674847,0.15409238983301995,0.0
0.0585207114840402,0.02132597819876411,0.15406422663500627,0.0
0.0585236619143083,0.02135655538517897,0.15414201070571074,0.0
0.058523930135241764,0.021364065571315954,0.154154885310517,0.0
0.058514542402570535,0.02137398974585411,0.15411545683329783,0.0
0.0585059593326997,0.021352532071177016,0.1540765647979456,0.0
0.058521784367774055,0.02136728422251752,0.1540706639374094,0.0
0.05853734118191495,0.021324637094096793,0.15406959105367554,0.0
0.05852527123990908,0.02133751169890305,0.1540433054021961,0.0
0.058518833937505954,0.02137023465278562,0.15386869357451124,0.0
0.058533586088846457,0.02136379735038249,0.15404142785566186,0.0
0.05850998264670165,0.02137398974585411,0.15412323524036828,0.0
0.05853224498417914,0.021366479559717128,0.15407120037927632,0.0
0.05854753357738657,0.021400543618267015,0.15409480382142113,0.0
0.0585354636353807,0.02139947073453316,0.15404679227433113,0.0
0.058545924251785786,0.021408322025337462,0.15405698466980275,0.0
0.05853680474004802,0.021404298711335507,0.15408112455381448,0.0
0.0585413644959169,0.021394642757730814,0.15404759693713152,0.0
0.05854619247271925,0.021380695269190703,0.1540226523903194,0.0
0.058548874682053886,0.021400543618267015,0.1540757601351452,0.0
0.058533586088846457,0.021361383361981318,0.15399368452950532,0.0
0.05853760940284841,0.021325441756897184,0.15397276329669515,0.0
0.05854699713551964,0.021327587524364894,0.15406959105367554,0.0
0.058559067077525506,0.021363529129449027,0.1540500109255327,0.0
0.058553970879789696,0.021345826547840424,0.15404437828592996,0.0
0.0585089097629678,0.02134260789663886,0.15397920059909828,0.0
0.05852339369337484,0.02134046212917115,0.1539716904129613,0.0
0.058556116647257406,0.02139222876932964,0.15409185339115303,0.0
0.05854860646112042,0.021369429989985228,0.15406369019313934,0.0
0.05851910215843942,0.021351727408376625,0.15405242491393387,0.0
0.05856174928686014,0.02143299835121612,0.15402882147178906,0.0
0.05856094462405975,0.021390887664662322,0.15383516595782828,0.0
0.05853814584471534,0.02135789648984629,0.15413289119397297,0.0
0.05852741700737679,0.021362724466648636,0.15416775991532325,0.0
0.05851856571657249,0.021359505815447072,0.1540795152282137,0.0
0.05852848989111065,0.0213570918270459,0.1540846114259495,0.0
0.05853680474004802,0.021336438815169195,0.1540736143676775,0.0
0.05853948694938266,0.021319004454494056,0.15401862907631744,0.0
0.05853331786791299,0.021317663349826738,0.15400655913431158,0.0
0.05855558020539048,0.021294864570482325,0.15407549191421174,0.0
0.05855155689138852,0.021299156105417744,0.15403391766952487,0.0
0.05854055983311651,0.021339121024503832,0.15406664062340744,0.0
0.05852822167017718,0.0213659431178502,0.15409882713542308,0.0
0.05853814584471534,0.02135145918744316,0.15406717706527437,0.0
0.05855477554259009,0.0213747944086545,0.1540167515297832,0.0
0.058572746345132154,0.021381499931991094,0.1538542096441042,0.0
0.0585295627748445,0.021358432931713217,0.15406369019313934,0.0
0.05852151614684059,0.021329196849965676,0.15416024972918627,0.0
0.05854404670525154,0.02134394900130618,0.15414764334531347,0.0
0.05853626829818109,0.02142629282787953,0.15408300210034873,0.0
0.05852795344924372,0.021398129629865842,0.15408112455381448,0.0
0.05853948694938266,0.021397593187998915,0.1540942673795542,0.0
0.05854163271685037,0.021415027548674054,0.1540382092044603,0.0
0.05855182511232199,0.021355482501445117,0.15408112455381448,0.0
0.05855477554259009,0.021370502873719083,0.15411518861236437,0.0
0.05855584842632394,0.02133670703610266,0.15407173682114325,0.0
0.05853895050751573,0.02134636298970735,0.15401648330884973,0.0
0.05854619247271925,0.021361919803848245,0.15410714198436046,0.0
0.05854967934485428,0.02140161650200087,0.1541127746239632,0.0
0.058545119588985395,0.02138632790879344,0.15410177756569118,0.0
0.05855665308912433,0.02137398974585411,0.15409104872835264,0.0
0.0585657726008621,0.02136728422251752,0.15410848308902778,0.0
0.05856496793806171,0.021349313419975452,0.15409104872835264,0.0
0.058583743403404165,0.021373453303987183,0.15410714198436046,0.0
0.058579451868468746,0.02133885280357037,0.15409909535635655,0.0
0.0585657726008621,0.02137533085052143,0.15409668136795537,0.0
0.05856657726366249,0.021364333792249418,0.15411921192636632,0.0
0.05855343443792277,0.021357628268912826,0.15403472233232526,0.0
0.05857301456606562,0.021346094768773888,0.1539982442853742,0.0
0.0585354636353807,0.02132007733822791,0.15419431378773615,0.0
0.05856174928686014,0.02131927267542752,0.15406047154193778,0.0
0.05854538780991886,0.021285745058744556,0.15408568430968336,0.0
0.05855638486819087,0.021288159047145733,0.15407415080954442,0.0
0.05855638486819087,0.02135145918744316,0.1540921216120865,0.0
0.058566309042729026,0.02129674211701657,0.15409373093768727,0.0
0.058577842542867964,0.02131846801262713,0.15411384750769705,0.0
0.05854351026338461,0.021333488384901095,0.15402452993685364,0.0
0.05857516033353333,0.021310689605556682,0.15408380676314912,0.0
0.05857811076380143,0.021310957826490146,0.15404491472779688,0.0
0.05855879885659204,0.02129969254728467,0.15403606343699258,0.0
0.05854619247271925,0.021297815000750425,0.1540167515297832,0.0
0.05854565603085232,0.021294328128615397,0.15402882147178906,0.0
0.05854967934485428,0.021313908256758246,0.1540087049017793,0.0
0.05854967934485428,0.02128950015181305,0.15400307226217655,0.0
0.058548874682053886,0.021287622605278805,0.15398966121550337,0.0
0.05856899125206366,0.021319809117294447,0.15401648330884973,0.0
0.05857408744979947,0.021355482501445117,0.15402023840191822,0.0
0.058535731856314166,0.02131712690795981,0.15400897312271275,0.0
0.058553166216989305,0.02130183831475238,0.15398000526189867,0.0
0.05857113701953137,0.02129754677981696,0.1539783959362979,0.0
0.058567650147396344,0.021299960768218135,0.15396310734309046,0.0
0.05855718953099126,0.021284940395944165,0.15375469967778918,0.0
0.05856309039152746,0.021319540896360983,0.15397920059909828,0.0
0.058573551007932545,0.02131122604742361,0.1541371827289084,0.0
0.05857918364753528,0.02134904519904199,0.15401219177391431,0.0
0.05855879885659204,0.02132222310569562,0.15410177756569118,0.0
0.05851990682123981,0.02129754677981696,0.15407334614674403,0.0
0.05855558020539048,0.02135870115264668,0.1540757601351452,0.0
0.05856899125206366,0.021363260908515563,0.15407039571647593,0.0
0.0585716734613983,0.02135870115264668,0.15408192921661487,0.0
0.05855048400765467,0.02134180323383847,0.15406824994900822,0.0
0.05855504376352355,0.021281989965676065,0.15403686809979297,0.0
0.05860037310127891,0.021329196849965676,0.15408514786781644,0.0
0.05857972008940221,0.02134260789663886,0.1540816609956814,0.0
0.05858025653126914,0.021342071454771933,0.15406342197220588,0.0
0.058568454810196735,0.021316590466092883,0.15400977778551314,0.0
0.05857837898473489,0.02132007733822791,0.1540921216120865,0.0
0.05858508450807148,0.021304520524087017,0.15401648330884973,0.0
0.05858857138020651,0.021329196849965676,0.1541275267753037,0.0
0.05856604082179556,0.02129674211701657,0.15412591744970291,0.0
0.05856899125206366,0.021273138674871763,0.15409024406555225,0.0
0.05858186585686992,0.021243902593124222,0.1541170661588986,0.0
0.058593935798875785,0.021294328128615397,0.1541208212519671,0.0
0.05859634978727696,0.02130103365195199,0.15405778933260314,0.0
0.05860359175248048,0.021274211558605618,0.1540706639374094,0.0
0.05859420401980925,0.021249803453660423,0.1540462558324642,0.0
0.05858723027553919,0.02125329032579545,0.1540631537512724,0.0
0.058599031996611595,0.02126348272126707,0.1540610079838047,0.0
0.058578647205668355,0.0213002289891516,0.154106873763427,0.0
0.05859500868260964,0.021349313419975452,0.15407978344914716,0.0
0.058593131136075394,0.021359237594513608,0.15408192921661487,0.0
0.058585889170871874,0.021315785803292492,0.15402533459965403,0.0
0.058599836659411986,0.021366479559717128,0.15402372527405325,0.0
0.05858106119406953,0.02131927267542752,0.1540264074833879,0.0
0.05855477554259009,0.021290304814613442,0.15402694392525482,0.0
0.058566309042729026,0.021301570093818917,0.15402426171592018,0.0
0.058582402298736846,0.021346094768773888,0.15404089141379493,0.0
0.05858186585686992,0.021302106535685844,0.15401058244831353,0.0
0.05859366757794232,0.02129888788448428,0.15399287986670493,0.0
0.058582938740603774,0.021301570093818917,0.15401326465764817,0.0
0.05858910782207344,0.021332951943034167,0.15399663495977342,0.0
0.05858696205460573,0.021331342617433385,0.15394889163361689,0.0
0.0585775743219345,0.021288159047145733,0.1538432125858322,0.0
0.05858696205460573,0.02133536593143534,0.15405859399540353,0.0
0.05860546929901472,0.021339389245437296,0.1540736143676775,0.0
0.0585952769035431,0.02135065452464277,0.1539097313773312,0.0
0.05858132941500299,0.021321150221961765,0.15397625016883018,0.0
0.058564163275261316,0.02129593745421618,0.15409104872835264,0.0
0.0585775743219345,0.02134046212917115,0.15402694392525482,0.0
0.058581597635936455,0.021349313419975452,0.1540234570531198,0.0
0.058588839601139975,0.02134046212917115,0.15401621508791627,0.0
0.05859554512447657,0.02133375660583456,0.1539982442853742,0.0
0.05859286291514193,0.02133161083836685,0.15396176623842314,0.0
0.05857381922886601,0.02129298702394808,0.15393118905200828,0.0
0.058589644263940366,0.021367552443450982,0.1540470604952646,0.0
0.0585864256127388,0.021357360047979362,0.15400280404124309,0.0
0.05858857138020651,0.021383913920392267,0.1539864425643018,0.0
0.05860600574088165,0.021349313419975452,0.15398456501776756,0.0
0.05857489211259986,0.02130827561715551,0.15398992943643683,0.0
0.058575696775400254,0.021346094768773888,0.15402211594845247,0.0
0.05860359175248048,0.02139437453679735,0.15407093215834286,0.0
0.05858615739180534,0.021354677838644726,0.1540736143676775,0.0
0.058568454810196735,0.021312030710224,0.154040354971928,0.0
0.058576501438200645,0.021366211338783664,0.15403901386726068,0.0
0.05856899125206366,0.02135575072237858,0.1540551071232685,0.0
0.05858106119406953,0.02137828128078953,0.15404196429752878,0.0
0.05857811076380143,0.02138203637385802,0.15390034364465996,0.0
0.058569259472997126,0.021412345339339417,0.1541060691006266,0.0
0.058562553949660534,0.021361919803848245,0.1540934627167538,0.0
0.05858508450807148,0.0213659431178502,0.15412859965903755,0.0
0.05859366757794232,0.02138337747852534,0.15411733437983208,0.0
0.05860385997341394,0.021399202513599697,0.15409587670515498,0.0
0.058596081566343494,0.02132436887316333,0.15406959105367554,0.0
0.05859205825234154,0.02139142410652925,0.15407388258861096,0.0
0.058585889170871874,0.02138766901346076,0.15395640181975387,0.0
0.05859956843847852,0.021422269513877573,0.15401058244831353,0.0
0.058593935798875785,0.021359505815447072,0.1541312818683722,0.0
0.058596886229143885,0.021370771094652546,0.15408970762368532,0.0
0.05858106119406953,0.021380158827323775,0.15413020898463833,0.0
0.05859125358954115,0.02138766901346076,0.15405349779766772,0.0
0.05858723027553919,0.021321686663828693,0.1540913169492861,0.0
0.058599031996611595,0.021338584582636905,0.1541111652983624,0.0
0.05860681040368204,0.021370502873719083,0.1540631537512724,0.0
0.05859447224074271,0.021323832431296402,0.15407334614674403,0.0
0.058580792973136064,0.02132866040809875,0.15407334614674403,0.0
0.05860895617114975,0.02135065452464277,0.15405993510007085,0.0
0.05860225064781316,0.021366479559717128,0.15395854758722158,0.0
0.05860573751994819,0.021350118082775843,0.1539657895524251,0.0
0.058603323531547014,0.02134636298970735,0.1541717832293252,0.0
0.0585952769035431,0.021335634152368804,0.15409319449582035,0.0
0.058622367217822935,0.021360578699180927,0.1541725878921256,0.0
0.05861592991541981,0.021379622385456848,0.15409185339115303,0.0
0.058606273961815114,0.021369429989985228,0.15397785949443096,0.0
0.058573551007932545,0.021346094768773888,0.15397303151762862,0.0
0.05859420401980925,0.021350118082775843,0.1540411596347284,0.0
0.058579451868468746,0.021340193908237687,0.1540167515297832,0.0
0.05857113701953137,0.021306666291554727,0.15396981286642705,0.0
0.05857703788006757,0.02134046212917115,0.15402748036712174,0.0
0.05859581334541003,0.021369429989985228,0.15393977212187912,0.0
0.05864248378783271,0.021345290105973497,0.15404303718126264,0.0
0.05859956843847852,0.021291109477413833,0.15401701975071666,0.0
0.058604128194347405,0.02133375660583456,0.15377803489900052,0.0
0.05860144598501277,0.021360578699180927,0.1540277485880552,0.0
0.05860439641528087,0.021341535012905005,0.15414362003131152,0.0
0.05859661800821042,0.02130183831475238,0.1540234570531198,0.0
0.058609224392083215,0.021358969373580144,0.15402104306471862,0.0
0.0586137841479521,0.021406176257869752,0.15401406932044856,0.0
0.05860761506648243,0.021346094768773888,0.1540441100649965,0.0
0.05859500868260964,0.021311494268357073,0.15401487398324895,0.0
0.058607883287415896,0.02134984986184238,0.15400682735524504,0.0
0.05859634978727696,0.02135789648984629,0.15398483323870102,0.0
0.058596886229143885,0.021390351222795395,0.15396122979655621,0.0
0.05860064132221238,0.021356287164245508,0.15399797606444074,0.0
0.058602787089680086,0.02133965746637076,0.1539931480876384,0.0
0.058617271020087125,0.02137828128078953,0.1540551071232685,0.0
0.05861592991541981,0.021353336733977407,0.15403606343699258,0.0
0.0586167345782202,0.021332951943034167,0.15389873431905918,0.0
0.05862478120622411,0.02135065452464277,0.15380002901554454,0.0
0.05861324770608517,0.021321954884762157,0.15405322957673426,0.0
0.05861271126421824,0.021283599291276847,0.15409587670515498,0.0
0.05861539347355288,0.021276357326073327,0.1539872472271022,0.0
0.05862397654342372,0.0213149811404921,0.15400280404124309,0.0
0.058637655811030365,0.021312567152090928,0.15409936357729,0.0
0.05863658292729651,0.021266701372468635,0.1540470604952646,0.0
0.058640606241298465,0.021328392187165285,0.15402613926245443,0.0
0.05862478120622411,0.021305056965953945,0.15401192355298085,0.0
0.05862290365968986,0.021242829709390367,0.15392931150547404,0.0
0.058607883287415896,0.02129459634954886,0.15393360304040946,0.0
0.05861914856662137,0.021302374756619308,0.15408273387941526,0.0
0.05862585408995796,0.021276893767940255,0.15401192355298085,0.0
0.05860949261301668,0.021302911198486235,0.15397785949443096,0.0
0.05860654218274858,0.021295669233282716,0.15402694392525482,0.0
0.05860895617114975,0.02127072468647059,0.15396042513375582,0.0
0.05862934096209299,0.021360310478247463,0.15388934658638795,0.0
0.0586167345782202,0.02131632224515942,0.1541267221125033,0.0
0.058604932857147796,0.02134180323383847,0.15409265805395342,0.0
0.05862183077595601,0.021355214280511653,0.1540875618562176,0.0
0.05862183077595601,0.021350922745576234,0.15407790590261292,0.0
0.058599031996611595,0.021358432931713217,0.15406959105367554,0.0
0.05859634978727696,0.02135870115264668,0.1540365998788595,0.0
0.05860895617114975,0.021371307536519474,0.15408729363528414,0.0
0.05860546929901472,0.021363529129449027,0.1540669088443409,0.0
0.05860466463621433,0.021350922745576234,0.15403016257645638,0.0
0.058608419729282824,0.021327855745298357,0.1540070955761785,0.0
0.05864597065996774,0.021371575757452937,0.15404437828592996,0.0
0.0586196850084883,0.021298351442617353,0.15409265805395342,0.0
0.05860734684554897,0.021208497429907016,0.15407120037927632,0.0
0.058577842542867964,0.021238806395388412,0.15406959105367554,0.0
0.058594740461676176,0.021265896709668244,0.15408675719341722,0.0
0.058611370159550924,0.021262141616599752,0.15411143351929588,0.0
0.05860761506648243,0.02124309793032383,0.15414201070571074,0.0
0.05862209899688947,0.02125677719793048,0.1539346759241433,0.0
0.05862075789222215,0.021259995849132043,0.1540950720423546,0.0
0.05860064132221238,0.02124014750005573,0.1541851942759984,0.0
0.05859581334541003,0.021223786023114446,0.15403794098352683,0.0
0.05860385997341394,0.02124148860472305,0.1540618126466051,0.0
0.058601982426879695,0.02126482382593439,0.1541245763450356,0.0
0.058610029054883606,0.02124309793032383,0.154077369460746,0.0
0.058626122310891426,0.0212758208842064,0.1540264074833879,0.0
0.05862048967128869,0.021248730569926568,0.15405778933260314,0.0
0.058607883287415896,0.021258922965398188,0.15404062319286146,0.0
0.05862424476435718,0.02124148860472305,0.15402506637872057,0.0
0.0586255858690245,0.021219226267245563,0.15400655913431158,0.0
0.058634705380762264,0.021251412779261205,0.154040354971928,0.0
0.0586462388809012,0.021250876337394278,0.15404598761153074,0.0
0.058656699497306286,0.02123210087205182,0.15402023840191822,0.0
0.058651603299570476,0.021219494488179027,0.1540433054021961,0.0
0.05867386563704796,0.021299156105417744,0.15409855891448962,0.0
0.058658040601973604,0.021291914140214224,0.15402452993685364,0.0
0.05862478120622411,0.02122834577898333,0.15400307226217655,0.0
0.05863926513663115,0.021236660627920702,0.15400521802964426,0.0
0.0586314867295607,0.021223786023114446,0.15402318883218633,0.0
0.0586226354387564,0.02121386184857629,0.15409909535635655,0.0
0.058615125252619416,0.02122271313938059,0.15404947448366577,0.0
0.05863926513663115,0.021249803453660423,0.15401836085538398,0.0
0.05866260035784249,0.021269651802736735,0.1538971249934584,0.0
0.05864945753210277,0.021253558546728914,0.15412859965903755,0.0
0.05861271126421824,0.021186503313362994,0.15409158517021956,0.0
0.05862344010155679,0.021237465290721094,0.15404598761153074,0.0
0.05862585408995796,0.021236124186053775,0.15398778366896912,0.0
0.05862344010155679,0.021268310698069417,0.15405457068140158,0.0
0.0586255858690245,0.02128011241914182,0.15406127620473817,0.0
0.05863819225289729,0.02120286479030428,0.1539872472271022,0.0
0.05865133507863701,0.0212758208842064,0.15407093215834286,0.0
0.058639801578498074,0.02133107439649992,0.1540905122864857,0.0
0.058639801578498074,0.02131417647769171,0.15403633165792605,0.0
0.058682180485985336,0.021302374756619308,0.15404598761153074,0.0
0.058644897776233884,0.02130773917528858,0.1541098241936951,0.0
0.058632559613294555,0.021304252303153554,0.15406583596060705,0.0
0.05863363249702841,0.021308007396222045,0.15397303151762862,0.0
0.058631218508627236,0.0213090802799559,0.15401245999484778,0.0
0.05863390071796187,0.021321686663828693,0.1540454511696638,0.0
0.05863524182262919,0.021291377698347297,0.1539287750636071,0.0
0.058648652869302376,0.021262946279400143,0.1538727168885132,0.0
0.05861405236888556,0.021245780139658468,0.15416749169438979,0.0
0.058632559613294555,0.021282794628476456,0.15410794664716085,0.0
0.05863068206676031,0.021274211558605618,0.1540425007393957,0.0
0.0586226354387564,0.021274748000472545,0.15401997018098476,0.0
0.05862880452022606,0.021348776978108525,0.15399985361097498,0.0
0.05864114268316539,0.021334829489568413,0.15404089141379493,0.0
0.058647043543701594,0.02132597819876411,0.15404196429752878,0.0
0.05863872869476422,0.021342339675705396,0.154040354971928,0.0
0.058627463415558745,0.02133375660583456,0.15402131128565208,0.0
0.05863014562489338,0.021298619663550816,0.1540306990183233,0.0
0.05861619813635327,0.021287622605278805,0.1539990489481746,0.0
0.058623171880623326,0.021303715861286626,0.15402828502992214,0.0
0.05863524182262919,0.021340730350104614,0.15401567864604934,0.0
0.058653749067038186,0.02130773917528858,0.15400736379711197,0.0
0.058626122310891426,0.021290304814613442,0.15405966687913739,0.0
0.05860976083395014,0.021290573035546906,0.15411384750769705,0.0
0.058619416787554834,0.021340730350104614,0.15406342197220588,0.0
0.05861995322942176,0.021305056965953945,0.15411384750769705,0.0
0.058627463415558745,0.021298351442617353,0.15413289119397297,0.0
0.05861861212475444,0.02133456126863495,0.15404357362312956,0.0
0.058631218508627236,0.021347167652507743,0.15390999959826465,0.0
0.05862504942715757,0.0213031794194197,0.15415086199651504,0.0
0.0586285362992926,0.021282526407542992,0.15419458200866962,0.0
0.0586167345782202,0.02123639240698724,0.15412645389156984,0.0
0.0586196850084883,0.02126267805846668,0.1541814391829299,0.0
0.05859795911287774,0.021302106535685844,0.15416346838038783,0.0
0.05860949261301668,0.021272334012071372,0.15413020898463833,0.0
0.058640606241298465,0.021335097710501877,0.15414549757784576,0.0
0.0586285362992926,0.02130183831475238,0.15407763768167945,0.0
0.058641947345965784,0.02129298702394808,0.1541460340197127,0.0
0.05864114268316539,0.021286281500611487,0.15415139843838196,0.0
0.058637655811030365,0.021294864570482325,0.15412886787997102,0.0
0.0586344371598288,0.02129754677981696,0.15412806321717062,0.0
0.05863577826449612,0.021310957826490146,0.15417419721772638,0.0
0.05862987740395992,0.02132597819876411,0.15415515353145046,0.0
0.058601982426879695,0.021315785803292492,0.1541194801472998,0.0
0.05859044892674076,0.021285476837811092,0.15413745094984185,0.0
0.058620221450355225,0.021351190966509698,0.154088366519018,0.0
0.05860868795021629,0.021310689605556682,0.15422623207881833,0.0
0.05863014562489338,0.021280380640075282,0.15418117096199643,0.0
0.05862478120622411,0.0212728704539383,0.15413906027544264,0.0
0.0586285362992926,0.021335902373302268,0.15417312433399252,0.0
0.058624512985290644,0.021271261128337517,0.1542079930553428,0.0
0.05864248378783271,0.021286281500611487,0.1542058472878751,0.0
0.05862370832249025,0.02128950015181305,0.1541629319385209,0.0
0.0586285362992926,0.021296473896083107,0.15410070468195733,0.0
0.05864811642743545,0.021322491326629084,0.154280412707378,0.0
0.058625317648091035,0.021297815000750425,0.1542361562533565,0.0
0.058626122310891426,0.021264019163133998,0.15424152067202576,0.0
0.05863229139236109,0.02134180323383847,0.1542551999396324,0.0
0.05862585408995796,0.021303715861286626,0.15423186471842107,0.0
0.0586226354387564,0.021314444698625173,0.15423427870682224,0.0
0.05863577826449612,0.02131927267542752,0.15424554398602772,0.0
0.05863363249702841,0.02129084125648037,0.15422623207881833,0.0
0.05863524182262919,0.021294328128615397,0.15423857024175766,0.0
0.05864248378783271,0.0213031794194197,0.15423347404402185,0.0
0.05865482195077204,0.021314444698625173,0.15422140410201599,0.0
0.05863604648542958,0.02129164591928076,0.15421255281121168,0.0
0.0586432884506331,0.021320882001028302,0.15418626715973224,0.0
0.05862987740395992,0.02131846801262713,0.15419377734586923,0.0
0.05862934096209299,0.021225395348715228,0.15421067526467744,0.0
0.05863497360169573,0.021288963709946124,0.15425412705589855,0.0
0.058633364276094946,0.021320345559161374,0.1542273049625522,0.0
0.058619416787554834,0.021255972535130088,0.15410499621689275,0.0
0.058632559613294555,0.02130398408222009,0.15423293760215492,0.0
0.058633364276094946,0.021293523465815006,0.15437429003409028,0.0
0.058621026113155617,0.02129754677981696,0.15420262863667353,0.0
0.05862048967128869,0.02128306284940992,0.15417419721772638,0.0
0.0586255858690245,0.021276357326073327,0.1542648558932371,0.0
0.05864114268316539,0.02124819412805964,0.15426673343977135,0.0
0.05866233213690902,0.021268310698069417,0.15425841859083397,0.0
0.058634705380762264,0.021259995849132043,0.154213893915879,0.0
0.05863497360169573,0.021252217442061596,0.15416615058972247,0.0
0.05865240796237087,0.02134689943157428,0.1541688327990571,0.0
0.0586462388809012,0.021306398070621263,0.1542943601959181,0.0
0.05864731176463506,0.0212787713144745,0.15423481514868917,0.0
0.05866796477651176,0.02129164591928076,0.15422247698574984,0.0
0.05864006979943154,0.02125624075606355,0.1541983371017381,0.0
0.058630413845826845,0.021261605174732825,0.1541763429851941,0.0
0.058640606241298465,0.0213659431178502,0.15414978911278118,0.0
0.05864945753210277,0.021272334012071372,0.15421147992747783,0.0
0.05864838464836891,0.02129888788448428,0.15423186471842107,0.0
0.05864811642743545,0.021265896709668244,0.1541186754844994,0.0
0.058652139741437403,0.02129513279141579,0.1540803198910141,0.0
0.05863390071796187,0.021303715861286626,0.15431420854499442,0.0
0.0586491893111693,0.02133375660583456,0.15425949147456783,0.0
0.05865187152050394,0.02126482382593439,0.15426619699790442,0.0
0.05865321262517126,0.02129164591928076,0.1542568092652332,0.0
0.05865991814850785,0.021291109477413833,0.15424688509069504,0.0
0.05865535839263897,0.02128386751221031,0.15422113588108252,0.0
0.058674133857981425,0.021347435873441206,0.15422006299734867,0.0
0.05865938170664092,0.021297010337950034,0.1542361562533565,0.0
0.058652944404237795,0.021303715861286626,0.1541763429851941,0.0
0.05865240796237087,0.021304520524087017,0.15413530518237414,0.0
0.05868083938131802,0.0212728704539383,0.1541932409040023,0.0
0.05866206391597556,0.02125463143046277,0.15420236041574006,0.0
0.05863524182262919,0.02128735438434534,0.15421443035774593,0.0
0.05866206391597556,0.021297010337950034,0.15412886787997102,0.0
0.05867145164864679,0.02134394900130618,0.15413369585677336,0.0
0.05864677532276813,0.021281989965676065,0.15425546816056587,0.0
0.05867681606731606,0.021355482501445117,0.15425546816056587,0.0
0.05867601140451567,0.021305593407820872,0.15422408631135062,0.0
0.05866152747410863,0.02126428738406746,0.15426083257923515,0.0
0.05867011054397947,0.02132436887316333,0.15427773049804336,0.0
0.058655894834505895,0.021291914140214224,0.15417151500839174,0.0
0.05865964992757439,0.021278234872607573,0.15422596385788487,0.0
0.058675474962648744,0.021314444698625173,0.15426217368390246,0.0
0.05865562661357243,0.021270992907404054,0.15423132827655414,0.0
0.05866716011371137,0.021279039535407964,0.15424768975349543,0.0
0.058677084288249526,0.021250876337394278,0.15421925833454828,0.0
0.0586735974161145,0.021233978418586066,0.15422515919508448,0.0
0.05867225631144718,0.021239611058188803,0.15423696091615688,0.0
0.058660186369441314,0.02123719706978763,0.1542463486488281,0.0
0.05865750416010668,0.02119428172043344,0.15423401048588878,0.0
0.0586972008582593,0.02126267805846668,0.15421040704374397,0.0
0.05869317754425735,0.021268042477135953,0.15423186471842107,0.0
0.058660186369441314,0.02121466651137668,0.15427987626551107,0.0
0.05867011054397947,0.021244707255924613,0.1542589550327009,0.0
0.0586765478463826,0.02119052662736495,0.15416615058972247,0.0
0.05866260035784249,0.021182748220294503,0.1540382092044603,0.0
0.058677084288249526,0.021213325406709362,0.15438099555742688,0.0
0.05868325336971919,0.02129245058208115,0.15426163724203554,0.0
0.05866233213690902,0.02124658480245886,0.15424178889295923,0.0
0.05866152747410863,0.02126482382593439,0.15426378300950325,0.0
0.058673329195181034,0.021258118302597797,0.15426968387003945,0.0
0.058660991032241705,0.02120581522057238,0.15431930474273023,0.0
0.05867788895104992,0.02120366945310467,0.1542471533116285,0.0
0.058674938520781816,0.021162363429351263,0.1542058472878751,0.0
0.05868915423025539,0.02125677719793048,0.15425439527683202,0.0
0.05867520674171528,0.0212278093371164,0.1542420571138927,0.0
0.058676279625449135,0.02123585596512031,0.1542412524510923,0.0
0.05867306097424757,0.021261605174732825,0.1542205994392156,0.0
0.05867306097424757,0.021249267011793496,0.1541999464273389,0.0
0.058685667358120364,0.02126428738406746,0.15423427870682224,0.0
0.05869800552105969,0.021268310698069417,0.15425251773029777,0.0
0.05869639619545891,0.02125677719793048,0.15426163724203554,0.0
0.05866420968344327,0.021254094988595842,0.1542412524510923,0.0
0.058645702439034275,0.021239879279122267,0.15421228459027822,0.0
0.05865026219490316,0.021250071674593887,0.1542492990790962,0.0
0.05866233213690902,0.021258922965398188,0.1541393284963761,0.0
0.05865562661357243,0.021241220383789585,0.15407254148394364,0.0
0.058674938520781816,0.02124819412805964,0.154357928557149,0.0
0.058673329195181034,0.021288159047145733,0.1541983371017381,0.0
0.0586765478463826,0.021197500371635005,0.15425412705589855,0.0
0.05869290932332388,0.021272334012071372,0.15430374792858934,0.0
0.05868486269531997,0.02124524369779154,0.15424688509069504,0.0
0.05867091520677986,0.021218421604445172,0.15417902519452872,0.0
0.05869398220705774,0.021242829709390367,0.15419780065987118,0.0
0.05869854196292662,0.021239879279122267,0.1541983371017381,0.0
0.05866796477651176,0.021220299150979418,0.15417822053172833,0.0
0.05864543421810081,0.021189453743631095,0.1542471533116285,0.0
0.05866447790437673,0.021188917301764167,0.15419592311333694,0.0
0.05867091520677986,0.02115404858041389,0.15419485022960308,0.0
0.0586735974161145,0.02120796098804009,0.1542302553928203,0.0
0.05867976649758416,0.021189990185498022,0.15421657612521364,0.0
0.05870497926532975,0.021247657686192713,0.15423937490455805,0.0
0.05867788895104992,0.021231027988317965,0.15407710123981253,0.0
0.05867869361385031,0.021219226267245563,0.15417446543865984,0.0
0.05866206391597556,0.02119857325536886,0.15431474498686135,0.0
0.058655894834505895,0.021193745278566514,0.15420182397387314,0.0
0.05866340502064288,0.02118838085989724,0.15431179455659325,0.0
0.05865401728797165,0.021207156325239698,0.1542707567537733,0.0
0.05865750416010668,0.021216007616044,0.1542479579744289,0.0
0.05866742833464483,0.021196695708834614,0.15429382375405118,0.0
0.058668232997445224,0.021194013499499977,0.15423722913709034,0.0
0.05866635545091098,0.021203401232171206,0.1542130892530786,0.0
0.05866501434624366,0.021159412999083162,0.15427048853283984,0.0
0.058689422451188855,0.02117899312722601,0.15432064584739755,0.0
0.058679230055717235,0.02118543042962914,0.15437402181315682,0.0
0.05863658292729651,0.021172824045756346,0.1542656605560375,0.0
0.058636314706363046,0.021136882440672213,0.1542294507300199,0.0
0.05866233213690902,0.021183552883094894,0.15421550324147978,0.0
0.058669037660245615,0.02120661988337277,0.15426968387003945,0.0
0.058653749067038186,0.021166386743353218,0.154328424254468,0.0
0.0586314867295607,0.02111917985906361,0.15428470424231341,0.0
0.058665282567177124,0.021160217661883553,0.15425949147456783,0.0
0.05866206391597556,0.021209838534574334,0.15413369585677336,0.0
0.05865348084610472,0.021173628708556737,0.15428819111444844,0.0
0.058666087229977515,0.021172824045756346,0.15437509469689067,0.0
0.058676279625449135,0.021216544057910926,0.15439065151103157,0.0
0.0586676965555783,0.021174701592290592,0.15430857590539168,0.0
0.058671988090513716,0.021166118522419754,0.15429382375405118,0.0
0.05867225631144718,0.02119562282510076,0.15430428437045626,0.0
0.05866716011371137,0.02118838085989724,0.15426887920723906,0.0
0.05867976649758416,0.021182748220294503,0.15431394032406096,0.0
0.05867145164864679,0.021166118522419754,0.15430938056819207,0.0
0.058668232997445224,0.02117818846442562,0.15429167798658347,0.0
0.0586735974161145,0.021196159266967687,0.15426592877697096,0.0
0.05867225631144718,0.021149220603611543,0.15433700732433883,0.0
0.058666087229977515,0.021203401232171206,0.15430964878912554,0.0
0.058669037660245615,0.021177115580691765,0.15432198695206487,0.0
0.05865616305543936,0.021140637533740705,0.1543018703820551,0.0
0.05866501434624366,0.021188649080830704,0.15423481514868917,0.0
0.058666891892777906,0.02113151802200294,0.15430857590539168,0.0
0.05866876943931215,0.021179797790026402,0.15428443602137995,0.0
0.05863953335756461,0.021222176697513664,0.15429328731218425,0.0
0.058644897776233884,0.021200450801903106,0.15425654104429973,0.0
0.05863014562489338,0.021163436313085118,0.1542627101257694,0.0
0.058645702439034275,0.021200450801903106,0.15423347404402185,0.0
0.05862719519462528,0.021225127127781764,0.15431233099846017,0.0
0.05862129433408908,0.021174165150423665,0.15435685567341514,0.0
0.058649993973969694,0.021230491546451038,0.15433754376620576,0.0
0.05863202317142763,0.02120661988337277,0.15426753810257174,0.0
0.05862478120622411,0.021190258406431486,0.15430133394018816,0.0
0.05861861212475444,0.021119984521864,0.15433030180100224,0.0
0.05864302022969964,0.021221372034713273,0.15434800438261084,0.0
0.05862934096209299,0.021164777417752436,0.15432949713820185,0.0
0.05865026219490316,0.021243366151257295,0.15434210352207464,0.0
0.05866501434624366,0.02120447411590506,0.1543166225333956,0.0
0.05865777238104014,0.021154585022280816,0.15436409763861866,0.0
0.05862478120622411,0.021154585022280816,0.15429945639365392,0.0
0.05863604648542958,0.021174969813224056,0.15430240682392202,0.0
0.058635510043562655,0.021159681220016626,0.15430723480072436,0.0
0.0586373875900969,0.021142246859341487,0.15429167798658347,0.0
0.05866635545091098,0.02122056737191288,0.15422837784628604,0.0
0.058660991032241705,0.021199914360036178,0.1540913169492861,0.0
0.05862585408995796,0.021150293487345397,0.15433164290566956,0.0
0.05864677532276813,0.021188917301764167,0.1543372755452723,0.0
0.05866206391597556,0.021198305034435396,0.15428980044004922,0.0
0.058652139741437403,0.021199914360036178,0.15428765467258151,0.0
0.05863282783422802,0.02119562282510076,0.15426726988163827,0.0
0.058640338020365,0.02122700467431601,0.15428443602137995,0.0
0.058637655811030365,0.02125972762819858,0.15427129319564023,0.0
0.05863819225289729,0.021286817942478414,0.15418975403186727,0.0
0.05862478120622411,0.021228613999916792,0.15413798739170878,0.0
0.058641410904098856,0.021174969813224056,0.15432815603353453,0.0
0.05865830882290707,0.021228613999916792,0.1542699520909729,0.0
0.05863524182262919,0.021192940615766123,0.15422515919508448,0.0
0.0586167345782202,0.021214398290443217,0.15424742153256196,0.0
0.05865535839263897,0.02126053229099897,0.15424849441629582,0.0
0.058666891892777906,0.02125114455832774,0.15423266938122146,0.0
0.0586314867295607,0.021225931790582155,0.15433298401033688,0.0
0.0586432884506331,0.021235319523253384,0.15432413271953258,0.0
0.05865777238104014,0.021198841476302323,0.15430589369605704,0.0
0.058652139741437403,0.021231832651118356,0.15428443602137995,0.0
0.05862880452022606,0.021200987243770033,0.1542581503699005,0.0
0.05864436133436696,0.0212248589068483,0.15423374226495531,0.0
0.058640606241298465,0.021199646139102715,0.15413369585677336,0.0
0.058655894834505895,0.021243366151257295,0.15432413271953258,0.0
0.058623171880623326,0.021209838534574334,0.15426217368390246,0.0
0.05862129433408908,0.021243634372190758,0.15425064018376353,0.0
0.05858696205460573,0.021222176697513664,0.1542930190912508,0.0
0.058589644263940366,0.021152975696680034,0.1542589550327009,0.0
0.058623171880623326,0.02119937791816925,0.15429114154471654,0.0
0.05864382489250003,0.021249267011793496,0.15425466349776548,0.0
0.058623171880623326,0.021251412779261205,0.15427826693991029,0.0
0.05859715445007735,0.021166118522419754,0.15427531650964219,0.0
0.05861995322942176,0.021211179639241653,0.15422810962535258,0.0
0.058626122310891426,0.02119642748790115,0.15420933416001012,0.0
0.05862773163649221,0.021209302092707407,0.1543010657192547,0.0
0.058627463415558745,0.021219494488179027,0.15426619699790442,0.0
0.058629609183026454,0.02120957031364087,0.15424473932322733,0.0
0.05861888034568791,0.021183016441227966,0.15408568430968336,0.0
0.05863014562489338,0.021193745278566514,0.15408434320501604,0.0
0.05863390071796187,0.02118703975522992,0.15443785839532118,0.0
0.058640606241298465,0.021221372034713273,0.15432601026606682,0.0
0.058618075682887516,0.021190794848298413,0.1542627101257694,0.0
0.05860064132221238,0.02116880073175439,0.15428068092831146,0.0
0.05860520107808126,0.021169605394554782,0.15429677418431928,0.0
0.05861458881075249,0.0211620952084178,0.15426834276537213,0.0
0.05865348084610472,0.021181407115627184,0.15426431945137017,0.0
0.058635510043562655,0.02119642748790115,0.15425251773029777,0.0
0.058609224392083215,0.02120286479030428,0.15422435453228409,0.0
0.05859715445007735,0.02114036931280724,0.15419592311333694,0.0
0.058640606241298465,0.021207692767106625,0.15427478006777526,0.0
0.05861780746195405,0.02121252074390897,0.15427719405617643,0.0
0.058610029054883606,0.021202060127503888,0.15426163724203554,0.0
0.05863416893889534,0.02119562282510076,0.15423401048588878,0.0
0.05863604648542958,0.021199109697235787,0.15417902519452872,0.0
0.058607883287415896,0.021188649080830704,0.15423427870682224,0.0
0.05862585408995796,0.02125543609326316,0.15423991134642498,0.0
0.058631218508627236,0.021250071674593887,0.15432949713820185,0.0
0.05862799985742567,0.021239611058188803,0.15428148559111185,0.0
0.05861834390382098,0.021207156325239698,0.15421416213681247,0.0
0.058609224392083215,0.021201255464703497,0.15422301342761677,0.0
0.0586226354387564,0.021185966871496067,0.1540972178098223,0.0
0.05862209899688947,0.021209302092707407,0.15408970762368532,0.0
0.05860064132221238,0.021160217661883553,0.15438770108076347,0.0
0.05862209899688947,0.02120581522057238,0.15430830768445822,0.0
0.05862934096209299,0.021186503313362994,0.1542581503699005,0.0
0.05861056549675053,0.021146538394276906,0.1541822438457303,0.0
0.05863926513663115,0.021199646139102715,0.15426753810257174,0.0
0.058610833717684,0.02112642182426713,0.15425573638149934,0.0
0.05861592991541981,0.021165582080552827,0.1542130892530786,0.0
0.05862075789222215,0.021205010557771988,0.15418921759000034,0.0
0.058610029054883606,0.021123203173065565,0.15415005733371465,0.0
0.058623171880623326,0.021132054463869867,0.15423347404402185,0.0
0.05861995322942176,0.021150829929212325,0.15420370152040738,0.0
0.05864597065996774,0.021157535452548917,0.1541991417645385,0.0
0.05862585408995796,0.021132590905736794,0.15414764334531347,0.0
0.05863524182262919,0.021106305254257354,0.1542101388228105,0.0
0.058617271020087125,0.021146538394276906,0.15418492605506492,0.0
0.058604128194347405,0.02113446845227104,0.15412940432183794,0.0
0.05862075789222215,0.021123203173065565,0.15417714764799448,0.0
0.05861190660141785,0.02114761127801076,0.1541283314381041,0.0
0.05861405236888556,0.021199914360036178,0.1540744190304779,0.0
0.058612979485151706,0.021125348940533275,0.15400548625057772,0.0
0.058591790031408075,0.021097722184386516,0.154173392554926,0.0
0.05860171420594623,0.02112856759173484,0.15420450618320777,0.0
0.05858991248487383,0.02112132562653132,0.1541355734033076,0.0
0.05860144598501277,0.02114331974307534,0.15415300776398275,0.0
0.058601982426879695,0.021177652022558693,0.15410848308902778,0.0
0.05861619813635327,0.021112474335727018,0.15408005167008063,0.0
0.058611370159550924,0.021131249801069476,0.15409185339115303,0.0
0.05860573751994819,0.02110603703332389,0.15409990001915694,0.0
0.05860037310127891,0.021058830149034282,0.1541111652983624,0.0
0.05861271126421824,0.021093162428517633,0.15412886787997102,0.0
0.05863095028769377,0.021104159486789644,0.15418546249693185,0.0
0.058636851148229974,0.02108565224238065,0.1541283314381041,0.0
0.058631218508627236,0.021069827207306293,0.15417607476426062,0.0
0.0586373875900969,0.021069022544505902,0.1541355734033076,0.0
0.05864087446223193,0.02109208954478378,0.15414576579877923,0.0
0.0586226354387564,0.02112856759173484,0.15415086199651504,0.0
0.05863282783422802,0.02106526745143741,0.15414201070571074,0.0
0.05865964992757439,0.02109450353318495,0.15417714764799448,0.0
0.05862585408995796,0.02108565224238065,0.15415434886865007,0.0
0.058615125252619416,0.021060439474635064,0.154117870821699,0.0
0.0586137841479521,0.021034153823155623,0.15407763768167945,0.0
0.0586285362992926,0.021068486102638975,0.15419458200866962,0.0
0.058619416787554834,0.021068486102638975,0.15415864040358548,0.0
0.058617271020087125,0.02112132562653132,0.1541245763450356,0.0
0.058633364276094946,0.021144124405875733,0.15397061752922744,0.0
0.05864087446223193,0.02112132562653132,0.1540950720423546,0.0
0.05860439641528087,0.02110469592865657,0.15421201636934476,0.0
0.058621026113155617,0.021120789184664392,0.1541835849503976,0.0
0.0586314867295607,0.02107465518410864,0.1541393284963761,0.0
0.05864302022969964,0.021126153603333666,0.1541637366013213,0.0
0.05864221556689925,0.021119448079997074,0.15412699033343677,0.0
0.05863953335756461,0.021071436532907075,0.15412323524036828,0.0
0.05865267618330433,0.02107841027717713,0.1541621272757205,0.0
0.05865401728797165,0.021103354823989253,0.15405483890233504,0.0
0.05861888034568791,0.021016719462480484,0.15414415647317845,0.0
0.05862934096209299,0.02105641616063311,0.1541999464273389,0.0
0.05864757998556852,0.021058293707167355,0.15419163157840152,0.0
0.05864221556689925,0.021065535672370874,0.1541621272757205,0.0
0.058630413845826845,0.02108484757958026,0.15416051795011973,0.0
0.058636851148229974,0.021077337393443276,0.15418251206666375,0.0
0.058619416787554834,0.02108645690518104,0.15420450618320777,0.0
0.0586167345782202,0.021048101311695735,0.15414683868251308,0.0
0.05866581900904405,0.021040054683691824,0.1541562264151843,0.0
0.05860466463621433,0.021045419102361098,0.1542345469277557,0.0
0.058591790031408075,0.021117838754396292,0.15414335181037805,0.0
0.05861539347355288,0.021098526847186907,0.15420316507854046,0.0
0.0586137841479521,0.021058293707167355,0.15420316507854046,0.0
0.058599836659411986,0.02102074277648244,0.15418036629919604,0.0
0.058601177764079304,0.02103817713715758,0.15419377734586923,0.0
0.058604932857147796,0.0210660721142378,0.15404303718126264,0.0
0.058616466357286734,0.021099331509987298,0.1541267221125033,0.0
0.05861110193861746,0.02105212462569769,0.15422810962535258,0.0
0.058597690891944276,0.021054002172231936,0.15425064018376353,0.0
0.05861110193861746,0.021056147939699645,0.15426968387003945,0.0
0.05861324770608517,0.02105346573036501,0.1542227452066833,0.0
0.05861780746195405,0.02103173983475445,0.15421067526467744,0.0
0.05859447224074271,0.02098667871793255,0.1541835849503976,0.0
0.05859634978727696,0.02103388560222216,0.15419967820640543,0.0
0.058607883287415896,0.02108189714931216,0.15416051795011973,0.0
0.058588034938339584,0.021030130509153668,0.15424822619536235,0.0
0.058596081566343494,0.02103978646275836,0.15418707182253263,0.0
0.058590985368607684,0.020972731229392437,0.15412886787997102,0.0
0.05861458881075249,0.021052392846631154,0.15415810396171856,0.0
0.05859795911287774,0.021046491986094953,0.15413208653117258,0.0
0.05859125358954115,0.02101350081127892,0.15418546249693185,0.0
0.05858910782207344,0.020968171473523554,0.15409078050741917,0.0
0.05858830315927305,0.021033617381288696,0.15416641881065593,0.0
0.05858213407780338,0.021038445358091042,0.1541680281362567,0.0
0.05858508450807148,0.020985874055132157,0.15412323524036828,0.0
0.05859366757794232,0.021018060567147803,0.15414630224064615,0.0
0.058607883287415896,0.02104568732329456,0.15415542175238392,0.0
0.05858910782207344,0.02101725590434741,0.1541873400434661,0.0
0.0585834751824707,0.02105346573036501,0.15416427304318822,0.0
0.05858025653126914,0.020982655403930593,0.15411170174022934,0.0
0.058589644263940366,0.021030130509153668,0.15416024972918627,0.0
0.05860090954314584,0.021034422044089087,0.15417017390372442,0.0
0.05859447224074271,0.021023424985817076,0.15414710690344655,0.0
0.05856711370552942,0.02097729098526132,0.15408997584461878,0.0
0.058584548066204556,0.02101135504381121,0.154117870821699,0.0
0.05859581334541003,0.021065535672370874,0.1540382092044603,0.0
0.05858186585686992,0.021040322904625288,0.15423427870682224,0.0
0.0585569213100578,0.021030130509153668,0.15419780065987118,0.0
0.05857086879859791,0.020996066450603777,0.15421201636934476,0.0
0.05859447224074271,0.02101859700901473,0.15421523502054632,0.0
0.05859152181047461,0.021002235532073442,0.1542205994392156,0.0
0.05858508450807148,0.021016183020613557,0.15419458200866962,0.0
0.058573551007932545,0.02101645124154702,0.1541216259147675,0.0
0.05856899125206366,0.02097648632246093,0.1542391066836246,0.0
0.05857489211259986,0.020956637973384616,0.15422113588108252,0.0
0.058567650147396344,0.02096280705485428,0.15425493171869895,0.0
0.05856228572872707,0.021006795287942324,0.15420450618320777,0.0
0.05857086879859791,0.02101993811368205,0.1541835849503976,0.0
0.058583743403404165,0.021008941055410034,0.1542855089051138,0.0
0.058562553949660534,0.020972463008458973,0.15423186471842107,0.0
0.05856309039152746,0.02101135504381121,0.1542227452066833,0.0
0.05857891542660182,0.02102744829981903,0.1542130892530786,0.0
0.0585746238916664,0.021001967311139978,0.154184389613198,0.0
0.058532781426046065,0.020997407555271096,0.15415166665931543,0.0
0.05852285725150791,0.021040591125558752,0.15412001658916671,0.0
0.05854029161218305,0.021052392846631154,0.1541940455668027,0.0
0.05856013996125936,0.021078142056243667,0.1541489844499808,0.0
0.058553166216989305,0.021049710637296517,0.1541739289967929,0.0
0.058544314926185004,0.021032008055687914,0.15421067526467744,0.0
0.05855718953099126,0.021043005113959925,0.15419297268306884,0.0
0.05855584842632394,0.020972731229392437,0.15415756751985163,0.0
0.05858427984527109,0.021048637753562662,0.15422328164855023,0.0
0.05854753357738657,0.021040591125558752,0.15418492605506492,0.0
0.058542973821517685,0.021001699090206515,0.15417366077585945,0.0
0.05855370265885623,0.021028252962619422,0.15418626715973224,0.0
0.058547265356453104,0.020995798229670314,0.1541688327990571,0.0
0.058530635658578356,0.020997139334337632,0.1541784887526618,0.0
0.05852741700737679,0.021048101311695735,0.15418385317133107,0.0
0.05854270560058422,0.02104112756742568,0.15418117096199643,0.0
0.05854833824018696,0.021059098369967746,0.15416427304318822,0.0
0.05853117210044528,0.02098104607832981,0.1541983371017381,0.0
0.05853975517031612,0.021034153823155623,0.15421282103214515,0.0
0.05852875811204411,0.02101779234621434,0.15417902519452872,0.0
0.05853680474004802,0.021022620323016685,0.1541784887526618,0.0
0.05853090387951182,0.021013232590345456,0.15417580654332716,0.0
0.058533586088846457,0.021099867951854225,0.1540484015999319,0.0
0.058539218728449194,0.02104193223022607,0.15389149235385566,0.0
0.058559067077525506,0.02099123847380143,0.15418036629919604,0.0
0.05854833824018696,0.020995798229670314,0.15426834276537213,0.0
0.05853895050751573,0.021035494927822942,0.15424661686976157,0.0
0.05855558020539048,0.021066340335171265,0.15420396974134085,0.0
0.05855182511232199,0.02106660855610473,0.15416346838038783,0.0
0.058573551007932545,0.02104488266049417,0.15420960238094358,0.0
0.05851266485603629,0.021025302532351322,0.15419726421800425,0.0
0.05852634412364294,0.021011891485678138,0.15415568997331738,0.0
0.058564699717128244,0.021069290765439366,0.1542071883925424,0.0
0.05856952769393059,0.02107841027717713,0.15419726421800425,0.0
0.058564163275261316,0.02105346573036501,0.15418975403186727,0.0
0.05856979591486405,0.021099331509987298,0.15419806888080465,0.0
0.05854351026338461,0.021024766090484395,0.15416749169438979,0.0
0.05854780179832003,0.02102878940448635,0.1542256956369514,0.0
0.05853760940284841,0.02098453295046484,0.15419297268306884,0.0
0.058552361554188914,0.02100786817167618,0.15420933416001012,0.0
0.05856148106592668,0.021035494927822942,0.15419297268306884,0.0
0.0585413644959169,0.021044614439560707,0.1541717832293252,0.0
0.05854404670525154,0.021043809776760316,0.15410177756569118,0.0
0.05855584842632394,0.021054002172231936,0.1541267221125033,0.0
0.05854109627498344,0.02104997885822998,0.15413020898463833,0.0
0.05854914290298735,0.021042200451159534,0.15416159083385358,0.0
0.05853600007724763,0.021031203392887523,0.15417741586892794,0.0
0.058529830995777965,0.021037908916224115,0.15415086199651504,0.0
0.05853385430977992,0.021026375416085177,0.15413798739170878,0.0
0.058522589030574446,0.021000357985539196,0.1541141157286305,0.0
0.05853170854231221,0.021008404613543107,0.15410714198436046,0.0
0.05854565603085232,0.021077873835310203,0.15413664628704146,0.0
0.0585569213100578,0.021062585242102774,0.15412886787997102,0.0
0.05854994756578774,0.02100491774140808,0.15411089707742895,0.0
0.05852714878644333,0.021016719462480484,0.15410124112382426,0.0
0.05852232080964098,0.02104273689302646,0.15406154442567163,0.0
0.058530635658578356,0.021026107195151713,0.15413879205450917,0.0
0.05853009921671143,0.020989897369134113,0.15413798739170878,0.0
0.058526880565509865,0.021011086822877743,0.15415810396171856,0.0
0.058509446204834725,0.02099848043900495,0.15409694958888884,0.0
0.05854485136805193,0.021037908916224115,0.15412216235663442,0.0
0.05854270560058422,0.021024229648617467,0.15409265805395342,0.0
0.05854109627498344,0.020994457125002995,0.1540395503091276,0.0
0.058527685228310256,0.020961734171120426,0.15415837218265202,0.0
0.05854270560058422,0.021007063508875788,0.15419163157840152,0.0
0.058525539460842546,0.020989897369134113,0.1541001682400904,0.0
0.05853680474004802,0.021011891485678138,0.15413879205450917,0.0
0.05851990682123981,0.020974876996860146,0.15409534026328806,0.0
0.05852929455391104,0.021030398730087132,0.15417419721772638,0.0
0.05854109627498344,0.021012427927545065,0.15409319449582035,0.0
0.05854833824018696,0.021025570753284786,0.1540714686002098,0.0
0.05851320129790322,0.02098104607832981,0.15401219177391431,0.0
0.05852848989111065,0.02097514521779361,0.15409158517021956,0.0
0.058533586088846457,0.02101135504381121,0.15409453560048766,0.0
0.05852580768177601,0.02103603136968987,0.15403579521605912,0.0
0.05854914290298735,0.021024766090484395,0.15408353854221565,0.0
0.058556116647257406,0.021067681439838584,0.15403794098352683,0.0
0.05856791836832981,0.02105292928849808,0.15395747470348772,0.0
0.058567650147396344,0.020957174415251544,0.15406717706527437,0.0
0.058570600577664444,0.021060439474635064,0.15409319449582035,0.0
