0.016807260132701413,0.025319519677104912,0.19396316337146322,0.0
0.016830863574846217,0.025431099585425807,0.19396879601106595,0.0
0.016848029714587893,0.02552819556333966,0.19399025368574305,0.0
0.016797872400030184,0.0254496068298348,0.1938885979519603,0.0
0.016792239760427447,0.02544504707396592,0.19402136731402483,0.0
0.016830058912045826,0.02546838229517726,0.19403880167469997,0.0
0.016851248365789457,0.02550405567932793,0.19399856853468042,0.0
0.016853394133257166,0.025457117015971784,0.19402002620935752,0.0
0.016837837319116273,0.025362703247392565,0.194012784244154,0.0
0.016813965656038005,0.025403472829279045,0.19401922154655712,0.0
0.01680618724896756,0.025397571968742844,0.19398971724387612,0.0
0.016833009342313927,0.025397571968742844,0.1938784055564887,0.0
0.01683917842378359,0.02534419600298357,0.19396638202266478,0.0
0.016786875341758174,0.025330516735376923,0.19415950109475863,0.0
0.016791166876693592,0.025393280433807425,0.19400634694175087,0.0
0.016818525411906888,0.025394889759408207,0.19402699995362757,0.0
0.0168383737609832,0.02537986938713424,0.19397630619720294,0.0
0.016818257190973424,0.02532086078177223,0.19395645784812662,0.0
0.01683917842378359,0.02538791601513815,0.1939891808020092,0.0
0.016838641981916664,0.025342318456449325,0.1939146153825063,0.0
0.016802432155899067,0.025263729722944467,0.19382261560232825,0.0
0.016830595353912754,0.02535572950312251,0.1939905219066765,0.0
0.016861977203128004,0.02540642325954715,0.19396530913893092,0.0
0.01685875855192644,0.025388988898872006,0.1939433150223869,0.0
0.01683622799351549,0.025273922118416087,0.19392588066171176,0.0
0.016880484447536998,0.025334808270312342,0.19391193317317165,0.0
0.016864122970595714,0.02534258667738279,0.19388376997515797,0.0
0.01684856615645482,0.025319519677104912,0.1938915483822284,0.0
0.016850443702989066,0.025327834526042287,0.19390469120796813,0.0
0.016843738179652474,0.02536672656139452,0.19388001488208947,0.0
0.01679894528376404,0.02527553144401687,0.19386526273074897,0.0
0.01680779657456834,0.025357070607789828,0.1939744286506687,0.0
0.01685151658672292,0.02538791601513815,0.19402860927922835,0.0
0.016834350446981245,0.02537986938713424,0.1940519445004397,0.0
0.016798140620963648,0.02541607921315184,0.19385882542834584,0.0
0.016768904539216107,0.025317642130570667,0.1938421957304711,0.0
0.016756566376276778,0.025379332945267313,0.19395162987132428,0.0
0.01674422821333745,0.025306376851365192,0.19388242887049065,0.0
0.016748251527339404,0.025258633525208657,0.19384836481194076,0.0
0.01678580245802432,0.02537182275913033,0.1938657991726159,0.0
0.016848029714587893,0.02542117541088765,0.19374188110135568,0.0
0.01682093940030806,0.025313350595635248,0.19389852212649847,0.0
0.016807528353634877,0.025365653677660666,0.19397818374373718,0.0
0.01680699191176795,0.025364312572993347,0.19389369414969612,0.0
0.01681423387697147,0.025402936387412117,0.19390442298703467,0.0
0.016787680004558565,0.025354656619388655,0.19384273217233802,0.0
0.016791166876693592,0.02542627160862346,0.19385882542834584,0.0
0.016761394353079124,0.025417152096885696,0.19382395670699556,0.0
0.016783388469623146,0.025506737888662565,0.1938894026147607,0.0
0.0167815109230889,0.025518539609734967,0.19384702370727344,0.0
0.016728134957329627,0.02536806766606184,0.19377916381110713,0.0
0.016731621829464655,0.025398913073410162,0.1939108602894378,0.0
0.01674208244586974,0.025489303527987426,0.19390469120796813,0.0
0.016786338899891246,0.025446119957699773,0.19388108776582333,0.0
0.016784193132423537,0.025399181294343626,0.19392239378957674,0.0
0.016766490550814934,0.025399985957144017,0.19382127449766093,0.0
0.016778024050953872,0.025380137608067704,0.19382610247446327,0.0
0.016735108701599683,0.02549842303972519,0.19389664457996422,0.0
0.016732158271331583,0.025482598004650834,0.19386553095168244,0.0
0.016743423550537057,0.025432440690093126,0.1938451461607392,0.0
0.016762735457746442,0.02548823064425357,0.19387921021928908,0.0
0.016747446864539012,0.0254496068298348,0.19386714027728322,0.0
0.016765685888014543,0.0254378051087624,0.19388162420769026,0.0
0.016806455469901022,0.0254437059692986,0.19388296531235757,0.0
0.01680109105123175,0.02547723358598156,0.19387625978902098,0.0
0.01678875288829242,0.025482598004650834,0.19392400311517752,0.0
0.016794117306961693,0.025533023540142006,0.193905764091702,0.0
0.016795190190695548,0.025555017656686028,0.19381537363712473,0.0
0.016792776202294375,0.025533023540142006,0.1937719218459036,0.0
0.016808333016435268,0.025559040970687983,0.1940149300116217,0.0
0.016795190190695548,0.025588277052435524,0.19400178718588199,0.0
0.01676407656241376,0.025524708691204632,0.19394358324332037,0.0
0.016784193132423537,0.02548528021398547,0.19400929737201897,0.0
0.016835155109781636,0.02551666206320072,0.1939146153825063,0.0
0.016799481725630967,0.025445583515832846,0.1938657991726159,0.0
0.016815574981638787,0.025541070168145916,0.19396960067386634,0.0
0.016832472900447,0.02558720416870167,0.19395082520852389,0.0
0.016821207621241525,0.025587740610568597,0.1939551167434593,0.0
0.0168265720399108,0.02553758329601089,0.19397201466226752,0.0
0.016850443702989066,0.02556172318002262,0.1940178804418898,0.0
0.01681289277230415,0.025573793122028485,0.19392990397571372,0.0
0.01679545841162901,0.02555233544735139,0.1938843064170249,0.0
0.01681879363284035,0.025535705749476643,0.19405596781444165,0.0
0.016803236818699458,0.025505128563061783,0.19402324486055908,0.0
0.016793044423227838,0.025488498865187035,0.1939655773598644,0.0
0.016776951167220017,0.025479915795316197,0.19394867944105618,0.0
0.016776682946286554,0.02545818989970564,0.19398220705773914,0.0
0.016800286388431358,0.02544504707396592,0.1940481894073712,0.0
0.016770782085750353,0.025442633085564745,0.19400634694175087,0.0
0.016749324411073258,0.025425735166756534,0.19396155404586243,0.0
0.016763540120546833,0.025450411492635192,0.19400259184868238,0.0
0.01677936515562119,0.025396767305942453,0.19398971724387612,0.0
0.01679599485349594,0.025355997724055973,0.19396504091799746,0.0
0.016790093992959738,0.025471064504511896,0.19403531480256495,0.0
0.01675173839947443,0.02537691895686614,0.19398944902294266,0.0
0.016780974481221973,0.025360289258991392,0.19402217197682523,0.0
0.016807260132701413,0.0253026217582967,0.1939307086385141,0.0
0.016749860852940186,0.02542761271329078,0.19398354816240646,0.0
0.01673859557373471,0.025424930503956143,0.19411712218727137,0.0
0.01675307950414175,0.025430831364492344,0.19413643409448075,0.0
0.016760857911212197,0.025455507690371002,0.19408037591938684,0.0
0.016759785027478342,0.02550995653986413,0.19403290081416377,0.0
0.01675173839947443,0.025505933225862174,0.19399910497654735,0.0
0.01676032146934527,0.025487157760519717,0.19402726817456104,0.0
0.016754152387875604,0.025424930503956143,0.19402404952335947,0.0
0.01675898036467795,0.025433781794760444,0.19403987455843383,0.0
0.016761394353079124,0.02544585173676631,0.19403906989563344,0.0
0.01674074134120242,0.02539220755007357,0.1940224401977587,0.0
0.01673859557373471,0.02541742031781916,0.19402109909309137,0.0
0.016741009562135884,0.025462481434641058,0.19399990963934774,0.0
0.0167216976549265,0.025435927562228153,0.19393258618504836,0.0
0.016725720968928454,0.025408300806081394,0.19391917513837517,0.0
0.016719015445591862,0.02541098301541603,0.19404255676776846,0.0
0.016694339119713204,0.02530905906069983,0.1940082244882851,0.0
0.01667905052650577,0.025355997724055973,0.19400286006961584,0.0
0.01668495138704197,0.025417688538752623,0.19398113417400528,0.0
0.01669836243371516,0.02536458079392681,0.1940371923490992,0.0
0.016700239980249405,0.025342318456449325,0.19403182793042992,0.0
0.016688438259177003,0.025370481654463012,0.1940157346744221,0.0
0.016709895933854097,0.025358411712457146,0.1940135889069544,0.0
0.016689242921977394,0.025327566305108823,0.1940806441403203,0.0
0.016711237038521416,0.02528438273482117,0.19407903481471953,0.0
0.016676368317171134,0.02531710568870374,0.19404282498870193,0.0
0.016693802677846276,0.025365653677660666,0.1940165393372225,0.0
0.016712041701321807,0.025351169747253627,0.19403370547696416,0.0
0.01672625741079538,0.025321129002705695,0.1940489940701716,0.0
0.01670426329425136,0.025284650955754634,0.19402995038389567,0.0
0.016672076782235715,0.025325688758574577,0.19386445806794858,0.0
0.01669407089877974,0.02532434765390726,0.19391542004530668,0.0
0.016708286608253315,0.02531415525843564,0.19418095876943572,0.0
0.016682537398640798,0.025370749875396476,0.19408869076832422,0.0
0.01665786107276214,0.02534982864258631,0.19398408460427338,0.0
0.01667180856130225,0.025324615874840722,0.19404550719803657,0.0
0.016699435317449014,0.02539140288727318,0.1940562360353751,0.0
0.016696484887180913,0.025331589619110778,0.1940208308721579,0.0
0.016678782305572307,0.02541822498061955,0.19404550719803657,0.0
0.016672881445036106,0.025402131724611726,0.19403906989563344,0.0
0.016696484887180913,0.02543136780635927,0.19406481910524595,0.0
0.016695948445313986,0.02541956608528687,0.19400849270921858,0.0
0.016686292491709293,0.025378796503400386,0.19398354816240646,0.0
0.016706945503585997,0.02542251651555497,0.19401117491855321,0.0
0.0167334993759989,0.025353851956588264,0.19398971724387612,0.0
0.016699435317449014,0.025351706189120554,0.1939655773598644,0.0
0.01667744120090499,0.025399985957144017,0.19402190375589176,0.0
0.01670345863145097,0.02541902964341994,0.19402324486055908,0.0
0.016667517026366832,0.025368335886995302,0.19399374055787807,0.0
0.01669031580571125,0.025400522399010944,0.19398810791827534,0.0
0.016664834817032195,0.02536163036365871,0.19397845196467065,0.0
0.01669702132904784,0.025452289039169438,0.19395028876665696,0.0
0.01671955188745879,0.025359752817124465,0.19392883109197986,0.0
0.01677131852761728,0.025324884095774186,0.1940599911284436,0.0
0.0167275985154627,0.0252996713280286,0.19397711086000333,0.0
0.01673993667840203,0.025379601166200777,0.19395109342945735,0.0
0.016780974481221973,0.025343123119249716,0.1939529709759916,0.0
0.016796263074429402,0.025331321398177314,0.19396906423199942,0.0
0.016801359272165212,0.02531925145617145,0.19395484852252584,0.0
0.016798408841897112,0.025334808270312342,0.19390951918477048,0.0
0.016808869458302195,0.02538067404993463,0.19388296531235757,0.0
0.01680913767923566,0.02532220188643955,0.1939513616503908,0.0
0.01678660712082471,0.02537611429406575,0.19396128582492897,0.0
0.016768099876415716,0.02541446988755106,0.1938081316719212,0.0
0.016789021109225883,0.025404009271145972,0.19395538496439277,0.0
0.016797872400030184,0.02539730374780938,0.19402404952335947,0.0
0.01681637964443918,0.02541607921315184,0.19396825956919903,0.0
0.01681208810950376,0.02533239428191117,0.19391246961503858,0.0
0.01674878796920633,0.02531120482816754,0.19393419551064914,0.0
0.016810478783902977,0.025393280433807425,0.19395162987132428,0.0
0.016808869458302195,0.02536002103805793,0.19386258052141433,0.0
0.0167756100625527,0.02533319894471156,0.19393473195251607,0.0
0.0167903622138932,0.025332930723778097,0.19394063281305227,0.0
0.016822816946842307,0.02530610863043173,0.19398810791827534,0.0
0.01680699191176795,0.025260779292676366,0.19398354816240646,0.0
0.01679894528376404,0.025268021257879886,0.19392078446397595,0.0
0.01678365669055661,0.02527553144401687,0.1938776008936883,0.0
0.01680565080710063,0.025235298303997317,0.19393687771998377,0.0
0.016796531295362866,0.02519694271051201,0.19390764163823623,0.0
0.01679250798136091,0.025251391560005138,0.19388162420769026,0.0
0.016802432155899067,0.02532005611897184,0.19386418984701512,0.0
0.016809674121102586,0.02523127498999536,0.19379525706711495,0.0
0.0168442746215194,0.025255414874007093,0.19382261560232825,0.0
0.01678955755109281,0.02529591623496011,0.19373249336868445,0.0
0.0167756100625527,0.025276872548684187,0.1940267317326941,0.0
0.01680109105123175,0.025267753036946422,0.1939521663131912,0.0
0.016812356330437223,0.025267753036946422,0.19388993905662763,0.0
0.016803773260566385,0.02521089019905212,0.19390978740570394,0.0
0.0168413241912513,0.025294306909359326,0.193927758208246,0.0
0.016891749726742473,0.025272849234682232,0.19384273217233802,0.0
0.01687780223820236,0.025205525780382848,0.19374483153162378,0.0
0.016849639040188675,0.02525380554840631,0.19393204974318143,0.0
0.016861977203128004,0.02531576458403642,0.19393473195251607,0.0
0.01687404714513387,0.025300744211762455,0.19389691280089769,0.0
0.01689309083140979,0.025289747153490444,0.19395082520852389,0.0
0.01686814628459767,0.025171193500899497,0.19387867377742216,0.0
0.01686760984273074,0.025219741489856423,0.1938974492427646,0.0
0.016867878063664205,0.025257024199607875,0.19391059206850433,0.0
0.016862781865928395,0.025214913513054077,0.1939071051963693,0.0
0.01686600051712996,0.025200429582647038,0.19388242887049065,0.0
0.016837837319116273,0.025207671547850558,0.19386150763768048,0.0
0.01685661278445873,0.0252546102112067,0.1938944988124965,0.0
0.016819598295640743,0.0251977473733124,0.19387223647501903,0.0
0.01683166823764661,0.02525380554840631,0.19385426567247696,0.0
0.016848834377388284,0.025284650955754634,0.19382690713726367,0.0
0.016861440761261077,0.025302889979230164,0.1938598983120797,0.0
0.016833814005114318,0.025277677211484578,0.19381081388125584,0.0
0.016871364935799233,0.02527419033934955,0.19383951352113646,0.0
0.016833009342313927,0.025200161361713574,0.19376655742723434,0.0
0.016795190190695548,0.02532220188643955,0.19375448748522847,0.0
0.016811015225769905,0.025330516735376923,0.19383361266060026,0.0
0.01684346995871901,0.025288137827889662,0.1938695542656844,0.0
0.016848029714587893,0.02528947893255698,0.19370862170560618,0.0
0.016845347505253256,0.025326225200441504,0.19354581159899373,0.0
0.01687029205206538,0.025333735386578488,0.19384970591660808,0.0
0.016873510703266942,0.025280359420819215,0.19398435282520685,0.0
0.01684990726112214,0.02530101243269592,0.1938067905672539,0.0
0.01685875855192644,0.025383892701136196,0.19382610247446327,0.0
0.016888262854607445,0.025316032804969885,0.19380115792765115,0.0
0.016948612564636773,0.025313082374701784,0.19380330369511886,0.0
0.016915084947953813,0.025301280653629382,0.19377219006683707,0.0
0.01691267095955264,0.02536672656139452,0.19383790419553568,0.0
0.016897918808212137,0.025347951096052063,0.19382261560232825,0.0
0.016899259912879456,0.025375041410331894,0.19378881976471182,0.0
0.016876461133535043,0.02533454004937888,0.1937941841833811,0.0
0.01686465941246264,0.025313082374701784,0.19380544946258657,0.0
0.016854198796057557,0.02528062764175268,0.1937381260082872,0.0
0.016880484447536998,0.025366458340461057,0.19378399178790948,0.0
0.01685795388912605,0.025279554758018824,0.19379472062524802,0.0
0.01688289843593817,0.025298062002427818,0.19385507033527735,0.0
0.01686680517993035,0.025260779292676366,0.19379284307871378,0.0
0.016878606901002752,0.025278750095218433,0.1936981610892011,0.0
0.016896309482611355,0.025266680153212567,0.19382798002099752,0.0
0.016878875121936216,0.025260779292676366,0.1939159564871736,0.0
0.016882630215004708,0.025319787898038376,0.19380947277658853,0.0
0.016877534017268898,0.025233957199329998,0.1938051812416531,0.0
0.016901405680347165,0.025292697583758544,0.19381242320685663,0.0
0.01690677009901644,0.02530610863043173,0.19375556036896233,0.0
0.01696631514624538,0.025216254617721395,0.1937646798807001,0.0
0.01688799463367398,0.025177630803302625,0.19382100627672746,0.0
0.01689309083140979,0.025303694642030555,0.19388913439382724,0.0
0.01689872347101253,0.02530691329323212,0.19395189809225774,0.0
0.016905160773415657,0.025288942490690053,0.19382127449766093,0.0
0.016894968377944037,0.02524656358320279,0.19368796869372948,0.0
0.01688209377313778,0.025266680153212567,0.19375100061309344,0.0
0.01689014040114169,0.025263461502011003,0.19373463913615216,0.0
0.01690033279661331,0.025286796723222343,0.19370567127533808,0.0
0.016894968377944037,0.02539354865474089,0.1937866739972441,0.0
0.016858222110059513,0.02528223696735346,0.19380115792765115,0.0
0.016867341621797278,0.025249782234404355,0.1938140325324574,0.0
0.01690757476181683,0.025382283375535414,0.19382502959072942,0.0
0.01685071192392253,0.02532515231670765,0.193783723566976,0.0
0.01685285769139024,0.02535572950312251,0.19376360699696624,0.0
0.016853125912323703,0.02530476752576441,0.19375904724109735,0.0
0.016864391191529177,0.02530610863043173,0.19370835348467272,0.0
0.016836764435382418,0.02531066838630061,0.19349538606350256,0.0
0.01685875855192644,0.02533400360751195,0.19389798568463154,0.0
0.016871364935799233,0.02534982864258631,0.1939248077779779,0.0
0.01685661278445873,0.02531361881656871,0.1937890879856453,0.0
0.01684051952845091,0.02526989880441413,0.19376226589229892,0.0
0.016892017947675936,0.025351706189120554,0.1938354902071345,0.0
0.0168834348778051,0.025280359420819215,0.19381939695112668,0.0
0.016920985808490014,0.02528438273482117,0.19380491302071964,0.0
0.01692715488995968,0.025282773409220388,0.19375046417122652,0.0
0.016857149226325658,0.025262925060144076,0.1936960153217334,0.0
0.01689148150580901,0.025322470107373013,0.19361554904169428,0.0
0.016902746785014484,0.02528062764175268,0.1938325397768664,0.0
0.016879411563803143,0.025267216595079495,0.193839245300203,0.0
0.01689738236634521,0.025307449735099047,0.19371774121734395,0.0
0.016902746785014484,0.025232884315596144,0.19366034193758272,0.0
0.016895504819810964,0.02525514665307363,0.19371720477547702,0.0
0.01690972052928454,0.025343659561116644,0.19381537363712473,0.0
0.016913207401419567,0.025388184236071615,0.19377111718310322,0.0
0.016945125692501745,0.025298062002427818,0.19375636503176272,0.0
0.016944589250634818,0.02526238861827715,0.19377004429936937,0.0
0.016937615506364762,0.025315228142169494,0.1937676303109682,0.0
0.01691857182008884,0.025316569246836812,0.19372900649654942,0.0
0.01691347562235303,0.025249245792537428,0.19375958368296428,0.0
0.016903015005947947,0.025233152536529607,0.19377540871803864,0.0
0.016896309482611355,0.02521813216425564,0.19371935054294473,0.0
0.016903015005947947,0.02526989880441413,0.1937343709152187,0.0
0.01688718997087359,0.025217595722388714,0.19374885484562573,0.0
0.016971143123047726,0.02533105317724385,0.1937853328925768,0.0
0.016976507541717,0.025338831584314297,0.19368743225186255,0.0
0.016903015005947947,0.025266680153212567,0.19362815542556708,0.0
0.01692286335502426,0.025288406048823125,0.19383066223033216,0.0
0.016903015005947947,0.025275799664950332,0.19379740283458266,0.0
0.016842933516852083,0.025227788117860334,0.1937150590080093,0.0
0.01683461866791471,0.025299939548962064,0.19373329803148484,0.0
0.016837837319116273,0.02525595131587402,0.1937483184037588,0.0
0.01687699757540197,0.025241735606400445,0.19374724552002495,0.0
0.01681423387697147,0.025212767745586367,0.19371908232201127,0.0
0.016800018167497894,0.02523851695519888,0.1936960153217334,0.0
0.01679974994656443,0.025294038688425863,0.19368206783319328,0.0
0.016799481725630967,0.02528223696735346,0.19366731568185278,0.0
0.01682523093524348,0.025315496363102957,0.19369869753106803,0.0
0.01681584320257225,0.02525005045533782,0.19367723985639093,0.0
0.016792776202294375,0.025265607269478713,0.19370754882187233,0.0
0.01678231558588929,0.025310400165367147,0.193665706356252,0.0
0.01678660712082471,0.02524066272266659,0.19363807960010523,0.0
0.016808333016435268,0.0253026217582967,0.1937719218459036,0.0
0.01680404148149985,0.025301280653629382,0.19364317579784104,0.0
0.01679384908602823,0.025268021257879886,0.19380035326485076,0.0
0.016799481725630967,0.025243881373868154,0.19381644652085858,0.0
0.016798408841897112,0.02525890174614212,0.19373249336868445,0.0
0.016789289330159347,0.02530476752576441,0.19368609114719523,0.0
0.01678955755109281,0.025266411932279104,0.19368206783319328,0.0
0.016818525411906888,0.02527123990908145,0.19365658684451423,0.0
0.016821207621241525,0.02539220755007357,0.1935313276685867,0.0
0.016822816946842307,0.025310400165367147,0.19377540871803864,0.0
0.01677131852761728,0.02526694837414603,0.19371479078707585,0.0
0.016792776202294375,0.02536377613112642,0.1936758987517236,0.0
0.01680484614430024,0.025389793561672397,0.19377594515990557,0.0
0.0167874117836251,0.025288137827889662,0.19372337385694668,0.0
0.016761394353079124,0.02533319894471156,0.193695210658933,0.0
0.01676836809734918,0.02536082570085832,0.19369789286826763,0.0
0.01674503287613784,0.02528947893255698,0.19367402120518937,0.0
0.01678955755109281,0.025304231083897483,0.1937719218459036,0.0
0.016787143562691637,0.0252967208977605,0.19374456331069032,0.0
0.01678365669055661,0.025324884095774186,0.1937188141010778,0.0
0.016785534237090855,0.02528867426975659,0.19371425434520892,0.0
0.01682523093524348,0.02535143796818709,0.1937719218459036,0.0
0.016830058912045826,0.025302889979230164,0.19374349042695646,0.0
0.01682388983057616,0.025288942490690053,0.19372230097321283,0.0
0.016809405900169123,0.025308254397899438,0.19367026611212088,0.0
0.016768636318282643,0.025227251675993406,0.19367804451919132,0.0
0.016776951167220017,0.025257828862408266,0.19369655176360032,0.0
0.016798677062830576,0.02527204457188184,0.19365175886771188,0.0
0.01681369743510454,0.025309327281633293,0.1937196187638782,0.0
0.01680699191176795,0.025276872548684187,0.19369467421706607,0.0
0.016793580865094766,0.02525005045533782,0.19364773555370993,0.0
0.01678070626028851,0.02526748481601296,0.19361957235569624,0.0
0.0167903622138932,0.02523047032719497,0.1937512688340269,0.0
0.016796263074429402,0.025208207989717485,0.1937327615896179,0.0
0.016765954108948006,0.025243076711067763,0.19368367715879406,0.0
0.01673698624813393,0.025226983455059943,0.19368796869372948,0.0
0.01673913201560164,0.025201770687314357,0.1937032572869369,0.0
0.01675683459721024,0.025235298303997317,0.19369950219386842,0.0
0.016767831655482252,0.025263729722944467,0.1936834089378606,0.0
0.016796531295362866,0.025225105908525697,0.19364237113504065,0.0
0.016844006400585938,0.025227788117860334,0.19367911740292518,0.0
0.016903551447814875,0.02521732750145525,0.1936324469605025,0.0
0.016977848646384318,0.02526319328107754,0.19365256353051227,0.0
0.016979994413852027,0.025271508130014914,0.19361447615796043,0.0
0.016965242262511525,0.025117817535140217,0.1936042837624888,0.0
0.017049195414685657,0.02526748481601296,0.19366034193758272,0.0
0.017073067077763925,0.02524495425760201,0.19356726927367082,0.0
0.01705590093802225,0.02525005045533782,0.1936804585075925,0.0
0.01707065308936275,0.02523181143186229,0.19371344968240853,0.0
0.017087819229104427,0.02526828947881335,0.19370218440320305,0.0
0.017121078624853923,0.025339368026181225,0.19368662758906216,0.0
0.017124833717922415,0.0252967208977605,0.19367053433305434,0.0
0.017167749067276604,0.02529752556056089,0.19368770047279601,0.0
0.01719886269555839,0.025275263223083405,0.19370567127533808,0.0
0.017220856812102413,0.025324615874840722,0.19368475004252791,0.0
0.01725840774278733,0.025345000665783962,0.19369279667053182,0.0
0.01725599375438616,0.02527419033934955,0.19372015520574512,0.0
0.01727584210346247,0.02526614371134564,0.19368877335652987,0.0
0.01729247180133722,0.02531576458403642,0.1936522953095788,0.0
0.017264576824256996,0.02533963624711469,0.19360991640209155,0.0
0.017275573882529007,0.02533534471217927,0.193610184623025,0.0
0.017308833278278504,0.02527419033934955,0.19364103003037333,0.0
0.017325194755219788,0.025319787898038376,0.19375851079923043,0.0
0.017294081126938,0.025281968746419997,0.19346266310962,0.0
0.017296495115339174,0.025307181514165583,0.1938953034752969,0.0
0.017269404801059342,0.025286796723222343,0.19377621338083903,0.0
0.017254920870652304,0.025264534385744858,0.19366061015851618,0.0
0.017249020010116103,0.02525005045533782,0.19363995714663948,0.0
0.017285766278000627,0.02529242936282508,0.1936678521237197,0.0
0.017304005301476157,0.025327566305108823,0.19364827199557685,0.0
0.01732760874362096,0.02538121049180156,0.19363593383263752,0.0
0.0172911306966699,0.025374236747531503,0.1936160854835612,0.0
0.017246874242648393,0.025294843351226254,0.1936332516233029,0.0
0.017232122091307887,0.02529162470002469,0.1936316422977021,0.0
0.017228366998239396,0.02534044090991508,0.19364988132117764,0.0
0.01726484504519046,0.025408300806081394,0.1937410764385553,0.0
0.017284156952399845,0.025370749875396476,0.19372364207788015,0.0
0.017242850928646438,0.02531495992123603,0.19355573577353188,0.0
0.01722514834703783,0.025362703247392565,0.19353588742445557,0.0
0.017257334859053477,0.025369408770729157,0.19357799811100937,0.0
0.017285766278000627,0.025351169747253627,0.193610184623025,0.0
0.017291667138536828,0.0252908200372243,0.1935895316111483,0.0
0.017261358173055432,0.02531925145617145,0.1936316422977021,0.0
0.017227025893572077,0.025335076491245806,0.1936168901463616,0.0
0.017267527254525097,0.025315496363102957,0.19367536230985669,0.0
0.017303200638675766,0.02529537979309318,0.19342457573706814,0.0
0.017325194755219788,0.02528009119988575,0.19341036002759457,0.0
0.017236681847176773,0.02530396286296402,0.19378291890417562,0.0
0.017209859753830402,0.025351169747253627,0.1936960153217334,0.0
0.017297836220006493,0.025475892481314242,0.1936855547053283,0.0
0.017289253150135655,0.025438877992496254,0.19364961310024417,0.0
0.017259480626521186,0.025399717736210553,0.1936257414371659,0.0
0.01726108995212197,0.02542412584115575,0.19363647027450445,0.0
0.017234804300642528,0.02541742031781916,0.19358684940181367,0.0
0.01724446025424722,0.02540937368981525,0.19367268010052205,0.0
0.01721844282370124,0.02542975848075849,0.19366329236785082,0.0
0.01721549239343314,0.02545899456250603,0.1936552457398469,0.0
0.017238022951844092,0.025401863503678263,0.19365926905384886,0.0
0.017239095835577947,0.02544290130649821,0.19360106511128725,0.0
0.01719376649782258,0.02543995087623011,0.19345783513281764,0.0
0.017180891893016324,0.025444242411165528,0.19373410269428523,0.0
0.01720181312582649,0.02551505273759994,0.19372069164761205,0.0
0.017173113485945878,0.025400790619944408,0.19358014387847708,0.0
0.017152460474069174,0.025382551596468877,0.19360937996022462,0.0
0.017182232997683643,0.025529804888940442,0.19370969458934004,0.0
0.017161848206740403,0.02542922203889156,0.19371130391494082,0.0
0.01715648378807113,0.025387647794204687,0.19369494243799953,0.0
0.01715567912527074,0.025392743991940497,0.19367053433305434,0.0
0.017169358392877386,0.0254525572601029,0.1936627559259839,0.0
0.017186792753552525,0.025415810992218377,0.19365363641424613,0.0
0.017204495335161128,0.02542627160862346,0.19372230097321283,0.0
0.01724446025424722,0.025442364864631282,0.19374375864788992,0.0
0.01726350394052314,0.02541822498061955,0.19368099494945942,0.0
0.017243119149579902,0.02538416092206966,0.19360830707649077,0.0
0.017236950068110237,0.025394889759408207,0.19360535664622266,0.0
0.017200472021159173,0.025326225200441504,0.19353213233138708,0.0
0.017234804300642528,0.025424930503956143,0.19359811468101915,0.0
0.017174454590613196,0.0253506333053867,0.19359167737861602,0.0
0.01719081606755448,0.0253506333053867,0.19360347909968842,0.0
0.017236950068110237,0.025390330003539324,0.19356780571553775,0.0
0.01721710171903392,0.025339904468048152,0.1934980682728372,0.0
0.017262967498656214,0.02539140288727318,0.19356110019220116,0.0
0.01728388873146638,0.025432977131960053,0.1935608319712677,0.0
0.017282547626799063,0.02542412584115575,0.1935254268080505,0.0
0.017260821731188505,0.025422784736488433,0.1934935085169683,0.0
0.01726913658012588,0.025405618596746754,0.1934589080165515,0.0
0.017285766278000627,0.02532515231670765,0.19344683807454563,0.0
0.017269673021992806,0.02547803824878195,0.19349538606350256,0.0
0.017243387370513365,0.025446119957699773,0.19345408003974915,0.0
0.017226221230771686,0.025372090980063794,0.19348975342389982,0.0
0.017253043324118058,0.025378796503400386,0.19344496052801138,0.0
0.01726618614985778,0.025345268886717426,0.19338970701571787,0.0
0.01724070516117873,0.025289747153490444,0.19332533399168658,0.0
0.017262162835855823,0.02536002103805793,0.19329448858433826,0.0
0.017290862475736437,0.025366994782327984,0.19326498428165725,0.0
0.017294885789738392,0.025371554538196867,0.1932690075956592,0.0
0.017260821731188505,0.02535867993339061,0.1932003430366925,0.0
0.017251433998517276,0.025411787678216422,0.19314482130346552,0.0
0.017225953009838223,0.02542332117835536,0.19302868163927575,0.0
0.017269673021992806,0.025376650735932677,0.19303485072074542,0.0
0.01726108995212197,0.025375309631265358,0.19299247181325815,0.0
0.01726779547545856,0.025427076271423852,0.19293641363816424,0.0
0.01725170221945074,0.025412592341016813,0.19285943423026017,0.0
0.01727584210346247,0.025446924620500164,0.19282697949731106,0.0
0.017269673021992806,0.025429490259825025,0.19275670561274358,0.0
0.017305346406143476,0.025386038468603905,0.19272505554259486,0.0
0.017238022951844092,0.02536377613112642,0.19269394191431308,0.0
0.01723560896344292,0.02541446988755106,0.19237502722442476,0.0
0.01723078098664057,0.02541902964341994,0.19238709716643063,0.0
0.017228903440106323,0.02542841737609117,0.19244476466712532,0.0
0.017191888951288335,0.025377187177799604,0.19223367479248937,0.0
0.017181160113949788,0.025441828422764354,0.1923216512586655,0.0
0.01719162073035487,0.025377187177799604,0.1923651030498866,0.0
0.01724150982397912,0.025342318456449325,0.19227846768837784,0.0
0.017250092893849957,0.025327029863241896,0.1922639837579708,0.0
0.017236681847176773,0.025294038688425863,0.19223447945528976,0.0
0.017218711044634703,0.025321129002705695,0.19219075944313518,0.0
0.01724741068451532,0.02532381121204033,0.19218003060579664,0.0
0.017266454370791242,0.025305840409498265,0.1921389928029767,0.0
0.017258675963720795,0.025320592560838767,0.19209500456988865,0.0
0.01724821534731571,0.025323542991106868,0.1920724740114777,0.0
0.017286570940801018,0.025349023979785917,0.1920834710697497,0.0
0.017300786650274593,0.025342318456449325,0.192051820999601,0.0
0.017303200638675766,0.02531576458403642,0.19199951791757558,0.0
0.01730212775494191,0.025313887037502175,0.19196920895209418,0.0
0.01728388873146638,0.025279822978952288,0.19197189116142882,0.0
0.01729461756880493,0.02528652850228888,0.19193648599821161,0.0
0.017273159894127834,0.025261583955476757,0.19188686512552083,0.0
0.017285498057067163,0.025313082374701784,0.19182195565962262,0.0
0.017287912045468336,0.0253055721885648,0.19178467294987117,0.0
0.017234267858775597,0.02515751423329285,0.19176804325199642,0.0
0.01725840774278733,0.025179776570770335,0.1919144918816676,0.0
0.017271818789460516,0.025257828862408266,0.19181310436881832,0.0
0.01727503744066208,0.025263461502011003,0.19174765846105318,0.0
0.01726618614985778,0.025232884315596144,0.1917135944025033,0.0
0.017290057812936046,0.025208207989717485,0.19172137280957374,0.0
0.017280670080264817,0.02523637118773117,0.19167282482061682,0.0
0.01731741634814934,0.025244149594801618,0.19162990947126263,0.0
0.017263235719589678,0.025240394501733127,0.19157787461017067,0.0
0.017247142463581857,0.025191578291842737,0.1915156473536071,0.0
0.01726913658012588,0.025343927782050107,0.19156795043563252,0.0
0.017260821731188505,0.02531576458403642,0.19150277274880084,0.0
0.017283620510532918,0.02529028359535737,0.19146414893438207,0.0
0.017304541743343085,0.025264266164811394,0.1914099683058224,0.0
0.017265113266123924,0.02518809141970771,0.19133647577005336,0.0
0.017269673021992806,0.02534258667738279,0.19137000338673632,0.0
0.01725599375438616,0.025309327281633293,0.19135927454939777,0.0
0.0172852298361337,0.025306376851365192,0.19136222497966587,0.0
0.017276110324395934,0.025321129002705695,0.19139923946848386,0.0
0.017253579765984985,0.025328639188842678,0.19137134449140364,0.0
0.01726564970799085,0.025367263003261448,0.19134318129338995,0.0
0.017301859534008448,0.025382283375535414,0.1913147498744428,0.0
0.017276914987196326,0.025365385456727202,0.19126727476921973,0.0
0.017276914987196326,0.025377455398733068,0.19120826616385772,0.0
0.017279865417464426,0.025402936387412117,0.19120504751265616,0.0
0.017262162835855823,0.025318178572437594,0.19116240038423543,0.0
0.017253043324118058,0.02528947893255698,0.19113799227929024,0.0
0.017296763336272638,0.025393816875674352,0.19116052283770119,0.0
0.017306687510810794,0.02541956608528687,0.19110339177887342,0.0
0.017291667138536828,0.025310400165367147,0.19101514709176387,0.0
0.017342629115894927,0.025477770027848488,0.19113075031408672,0.0
0.01730936972014543,0.02541232412008335,0.19103660476644096,0.0
0.017260017068388114,0.02533909980524776,0.19107683790646052,0.0
0.017279865417464426,0.0254015952827448,0.1910872985228656,0.0
0.017303200638675766,0.025377187177799604,0.19098698389375018,0.0
0.017297836220006493,0.025272312792815305,0.19104679716191258,0.0
0.01725089755665035,0.02530610863043173,0.19105055225498108,0.0
0.017294081126938,0.0253506333053867,0.1910245348244351,0.0
0.01727423277786169,0.025302889979230164,0.19103311789430594,0.0
0.01725036111478342,0.025333735386578488,0.19095265161426683,0.0
0.01724070516117873,0.025394889759408207,0.19091992866038426,0.0
0.017264576824256996,0.025424394062089215,0.1909891296612179,0.0
0.017289789592002582,0.025391671108206643,0.19104384673164448,0.0
0.01724741068451532,0.025307449735099047,0.1909786690448128,0.0
0.017255189091585767,0.02534929220071938,0.19099449407988717,0.0
0.017276110324395934,0.02538416092206966,0.19099771273108873,0.0
0.017295958673472247,0.025438877992496254,0.1910430420688441,0.0
0.017265113266123924,0.025397571968742844,0.19100361359162493,0.0
0.017212810184098502,0.02532890740977614,0.19069113620413974,0.0
0.017215224172499675,0.025377187177799604,0.19071822651841958,0.0
0.01722353902143705,0.025406691480480612,0.19117473854717476,0.0
0.01722139325396934,0.02532220188643955,0.19121684923372856,0.0
0.017200740242092637,0.0252996713280286,0.19109641803460337,0.0
0.01721924748650163,0.02534634177045128,0.19106798661565622,0.0
0.01722943988197325,0.02536672656139452,0.19109427226713566,0.0
0.01720905509103001,0.0252996713280286,0.19109051717406716,0.0
0.017222466137703195,0.02531200949096793,0.19110821975567577,0.0
0.017238291172777555,0.025405618596746754,0.19118385805891253,0.0
0.017240973382112192,0.025381746933668486,0.19120424284985577,0.0
0.017237486509977164,0.02532729808417536,0.19108166588326286,0.0
0.017198058032758,0.02533695403778005,0.19103875053390867,0.0
0.017218979265568167,0.025385233805803514,0.19110526932540767,0.0
0.01725170221945074,0.025409910131682176,0.1911154617208793,0.0
0.017280401859331353,0.025387379573271224,0.1910577942201846,0.0
0.01725679841718655,0.02525970640894251,0.19106557262725504,0.0
0.01721549239343314,0.025329980293509996,0.19113075031408672,0.0
0.01725036111478342,0.025404277492079436,0.19112994565128633,0.0
0.01723078098664057,0.025337222258713515,0.19106342685978733,0.0
0.017247678905448784,0.025330516735376923,0.19106530440632158,0.0
0.017242850928646438,0.025286260281355416,0.19115193976783035,0.0
0.017233463195975206,0.025288942490690053,0.1911205579186151,0.0
0.017237486509977164,0.02524790468787011,0.19112243546514934,0.0
0.017273428115061298,0.025279018316151897,0.19112699522101823,0.0
0.01726913658012588,0.02528143230455307,0.19110312355793996,0.0
0.017251165777583812,0.025288942490690053,0.1910561848945838,0.0
0.017295958673472247,0.025287869606956198,0.191058598882985,0.0
0.017302395975875375,0.025284650955754634,0.19105725777831767,0.0
0.01729247180133722,0.025326493421374968,0.19103392255710633,0.0
0.017302932417742303,0.025369945212596084,0.19102855813843705,0.0
0.017276914987196326,0.02528652850228888,0.1910060275800261,0.0
0.017277719649996717,0.02526319328107754,0.19107066882499085,0.0
0.017281206522131744,0.02530101243269592,0.19087111245049387,0.0
0.017281206522131744,0.025329712072576532,0.19068443068080315,0.0
0.017268063696392024,0.025294038688425863,0.19117205633784012,0.0
0.01729327646413761,0.025331857840044242,0.19120719328012387,0.0
0.01732814518548789,0.025336417595913124,0.19109266294153487,0.0
0.01727798787093018,0.025300744211762455,0.1910341907780398,0.0
0.017287643824534873,0.025296452676827036,0.19105940354578538,0.0
0.017329218069221743,0.02525595131587402,0.1910704006040574,0.0
0.017266454370791242,0.02517065705903257,0.19097115885867583,0.0
0.017278256091863644,0.02523261609466268,0.19098564278908287,0.0
0.01728737560360141,0.025320324339905304,0.19102319371976778,0.0
0.01727423277786169,0.02532220188643955,0.19098966610308482,0.0
0.017261358173055432,0.025258365304275193,0.19092609774185393,0.0
0.01724231448677951,0.025235298303997317,0.19108005655766208,0.0
0.017247947126382248,0.0251977473733124,0.19110741509287538,0.0
0.017257066638120013,0.025200429582647038,0.19098564278908287,0.0
0.0172822794058656,0.025215718175854468,0.1910119284405623,0.0
0.017320098557483978,0.02532729808417536,0.1910127331033627,0.0
0.017317148127215878,0.025299403107095136,0.19097169530054275,0.0
0.017302932417742303,0.025300744211762455,0.1909832288006817,0.0
0.017315002359748168,0.025226983455059943,0.19097491395174432,0.0
0.0173332413832237,0.025262656839210612,0.191088103185666,0.0
0.017306955731744258,0.025227251675993406,0.19103606832457404,0.0
0.017321976104018224,0.025279018316151897,0.1910502840340476,0.0
0.017378302500045597,0.025243881373868154,0.19111117018594387,0.0
0.017346652429896883,0.02528062764175268,0.19110365999980689,0.0
0.017342092674028,0.025337222258713515,0.19111117018594387,0.0
0.017354967278834257,0.025334808270312342,0.1910813976623294,0.0
0.017347457092697274,0.025328639188842678,0.19107281459245856,0.0
0.017294885789738392,0.025313082374701784,0.19100844156842728,0.0
0.01730990616201236,0.02530181709549631,0.19105591667365035,0.0
0.017346652429896883,0.02535867993339061,0.19114603890729415,0.0
0.017362745685904703,0.025296452676827036,0.19112484945355052,0.0
0.017370255872041687,0.025292697583758544,0.19094353210252907,0.0
0.01728898492920219,0.025368604107928766,0.1907490719257679,0.0
0.017313124813213922,0.025413397003817204,0.191117607488347,0.0
0.017282011184932135,0.025324884095774186,0.19116588725637046,0.0
0.017280401859331353,0.025358948154324074,0.19107898367392823,0.0
0.017276110324395934,0.025416883875952232,0.1910687912784566,0.0
0.017299445545607275,0.025401863503678263,0.1910961498136699,0.0
0.01732251254588515,0.02542627160862346,0.1911125112906112,0.0
0.017305346406143476,0.025406959701414076,0.19104840648751337,0.0
0.01729837266187342,0.02537262742193072,0.19098993432401828,0.0
0.017271014126660125,0.025287601386022734,0.19099851739388912,0.0
0.017234267858775597,0.02541607921315184,0.19103740942924136,0.0
0.017176600358080905,0.025391671108206643,0.19107308281339203,0.0
0.01717901434648208,0.025364044352059884,0.19105752599925113,0.0
0.017183842323284425,0.025386843131404296,0.19099556696362102,0.0
0.017191352509421408,0.02536672656139452,0.19106396330165426,0.0
0.0171951076024899,0.025351706189120554,0.19104921115031376,0.0
0.017173649927812805,0.025270703467214523,0.1909816194750809,0.0
0.01714843716006722,0.025343927782050107,0.19101300132429616,0.0
0.017174454590613196,0.02536002103805793,0.19102265727790085,0.0
0.01719671692809068,0.025359752817124465,0.1910119284405623,0.0
0.017172308823145487,0.02535277907285441,0.1909617711260046,0.0
0.017164798637008503,0.02538496558487005,0.19099368941708678,0.0
0.017199130916491855,0.02543056314355888,0.19104250562697717,0.0
0.017205031777028056,0.025374236747531503,0.1910046864753588,0.0
0.01720905509103001,0.02538067404993463,0.1910097826730946,0.0
0.017217369939967385,0.025434050015693908,0.19099368941708678,0.0
0.01718786563728638,0.02539810841060977,0.1909596253585369,0.0
0.017205031777028056,0.025385233805803514,0.19093333970705745,0.0
0.01724150982397912,0.02530181709549631,0.19104706538284605,0.0
0.017209859753830402,0.025316032804969885,0.1910746921389928,0.0
0.01718196477675018,0.02536753122419491,0.1910923947206014,0.0
0.01729461756880493,0.025475892481314242,0.19108327520886365,0.0
0.017476739582626768,0.025517734946934576,0.19099315297521985,0.0
0.017368646546440904,0.02516126932636134,0.19092690240465432,0.0
0.017269673021992806,0.025356265944989437,0.1908805001831651,0.0
0.01755532831613163,0.025547507470549045,0.19098349702161516,0.0
0.01761353225869325,0.025735262123973625,0.19097893726574627,0.0
0.0173509439648323,0.02547857469064888,0.19089498411357214,0.0
0.01738286225591448,0.02509609163952966,0.19086735735742538,0.0
0.017379107162845988,0.025562259621889547,0.1911559630818323,0.0
0.01725036111478342,0.025330784956310387,0.19135498301446235,0.0
0.017581345746677607,0.02548018401624966,0.19122704162920018,0.0
0.017669590433787158,0.025355193061255582,0.1908914972414371,0.0
0.017233999637842133,0.02586964081163893,0.19054978377220438,0.0
0.017112227334049622,0.02619955255979926,0.19090034853224142,0.0
0.017159970660206157,0.02577495882212625,0.19121979966399666,0.0
0.017045172100683702,0.02566016026260379,0.19141560094542515,0.0
0.01709532941524141,0.02590772818419077,0.19142740266649755,0.0
0.017160507102073085,0.02558130330816547,0.19166424175074598,0.0
0.017180891893016324,0.02560919828524569,0.19171547194903754,0.0
0.017209323311963474,0.025640848355394406,0.19151081937680475,0.0
0.017239632277444874,0.02557567066856273,0.19148372906252492,0.0
0.017258675963720795,0.025556358761353346,0.19147621887638794,0.0
0.01729327646413761,0.02557862109883083,0.19143759506196917,0.0
0.017261626393988896,0.02551371163293262,0.19144081371317073,0.0
0.017313393034147386,0.025584521959367033,0.19143035309676565,0.0
0.01725840774278733,0.02555582231948642,0.19104116452230985,0.0
0.017225953009838223,0.02564701743686407,0.19132494226991442,0.0
0.017238291172777555,0.0256593555998034,0.1917481949029201,0.0
0.017249020010116103,0.025634142832057814,0.19166746040194754,0.0
0.017233999637842133,0.025586935947768206,0.19155668515642704,0.0
0.017280401859331353,0.025627705529654685,0.19151457446987324,0.0
0.017276914987196326,0.02561268515738072,0.19155024785402391,0.0
0.01726350394052314,0.025672766646476584,0.1914853383881257,0.0
0.017254920870652304,0.025701198065423737,0.1915725101915014,0.0
0.017315002359748168,0.025652381855533344,0.19150545495813548,0.0
0.017332168499489844,0.02561268515738072,0.191656731564609,0.0
0.01727074590572666,0.025616172029515747,0.19168140789048765,0.0
0.017313929476014314,0.02563762970419284,0.19170259734423128,0.0
0.017434360675139506,0.025673571309276975,0.1917393436121158,0.0
0.017303200638675766,0.025662842471938428,0.19172378679797492,0.0
0.01732385365055247,0.025712463344629212,0.19174846312385357,0.0
0.017336728255358726,0.025837454299623287,0.19175221821692207,0.0
0.017344774883362637,0.02575886556611843,0.1917371978446481,0.0
0.01734289733682839,0.02576691219412234,0.19184985063670285,0.0
0.017333777825090626,0.02583986828802446,0.19177877208933497,0.0
0.01734075156936068,0.02573418924023977,0.1915577580401609,0.0
0.017350675743898838,0.02570280739102452,0.19177018901946413,0.0
0.0173332413832237,0.025709781135294575,0.19207488799987887,0.0
0.017316343464415487,0.02582806656695206,0.1919195880794034,0.0
0.017306687510810794,0.02582243392734932,0.1918619205787087,0.0
0.017314734138814705,0.02587983320711055,0.1919713547195619,0.0
0.017291667138536828,0.025798562264271054,0.19190617703273022,0.0
0.017316879906282414,0.025811973310944238,0.1919359495563447,0.0
0.01735148040669923,0.025862130625501946,0.1920295586621235,0.0
0.017288448487335264,0.025818410613347366,0.19195713901008832,0.0
0.017298640882806884,0.0259112150563258,0.19194265507968128,0.0
0.017285766278000627,0.025821361043615466,0.19190429948619597,0.0
0.017276378545329398,0.02580714533414189,0.19187640450911575,0.0
0.017307492173611185,0.025786492322265188,0.19197752380103156,0.0
0.017353357953233475,0.02570200272822413,0.19208856726748552,0.0
0.017363818569638558,0.025658282716069545,0.19181203148508447,0.0
0.01746949761742325,0.02569127389088558,0.1919048359280629,0.0
0.01738661734898297,0.025697174751421782,0.19248741179554604,0.0
0.017095865857108337,0.025683495483815134,0.1924707820976713,0.0
0.017334582487891017,0.025633338169257423,0.1923718085732232,0.0
0.017897846448164754,0.02541232412008335,0.192269884618507,0.0
0.018475326117912066,0.02556762404055882,0.1920016636850433,0.0
0.017355503720701184,0.02547857469064888,0.19189705752099245,0.0
0.016551109141243595,0.02543860977156279,0.191966794963693,0.0
0.017958196158194082,0.025396230864075525,0.19272049578672598,0.0
0.01837286572132894,0.025306376851365192,0.1929745010107161,0.0
0.018646182852528434,0.025313350595635248,0.19177206656599838,0.0
0.018087210427190116,0.025588277052435524,0.1934353045744067,0.0
0.016573103257787616,0.025979879615292505,0.19198422932436815,0.0
0.016747715085472476,0.025947424882343396,0.1915194024466756,0.0
0.017070384868429288,0.025932672731002894,0.19207569266267926,0.0
0.01728388873146638,0.025868836148838538,0.19155427116802587,0.0
0.01737562029071096,0.02582377503201664,0.19193621777727815,0.0
0.01732599941802018,0.025751891821848373,0.19285380159065743,0.0
0.01774227830675582,0.025805804229474573,0.19242303877151476,0.0
0.01750248879223928,0.02573553034490709,0.192129336849372,0.0
0.017201276683959564,0.02592569898673284,0.19225593712996686,0.0
0.017175259253413587,0.02609601927948228,0.1918997397303271,0.0
0.017170967718478168,0.025912556160993118,0.19209339524428787,0.0
0.01720315423049381,0.02583316276468787,0.1922749808162428,0.0
0.01725840774278733,0.025856766206832672,0.19211887623296692,0.0
0.017179282567415542,0.025787565205999043,0.19213496948897474,0.0
0.017094256531507555,0.025835844974022505,0.19217198397779273,0.0
0.017161043543940012,0.025761011333586138,0.19218190815233088,0.0
0.017410220791127775,0.025764498205721166,0.19218271281513127,0.0
0.017351212185765765,0.025818410613347366,0.19212477709350312,0.0
0.017324121871485933,0.02589297603285027,0.19195257925421944,0.0
0.017277719649996717,0.0258543522184315,0.1917380025074485,0.0
0.017280401859331353,0.025850597125363008,0.19186594389271067,0.0
0.017286570940801018,0.02590692352139038,0.1923726132360236,0.0
0.01722729411450554,0.02578166434546284,0.19214945341938178,0.0
0.017226221230771686,0.02589378069565066,0.1923023393514561,0.0
0.017255725533452695,0.025910946835392336,0.19222696926915278,0.0
0.01726269927772275,0.0259082646260577,0.1922631790951704,0.0
0.017237754730910628,0.025934818498470603,0.1922452082926283,0.0
0.017230512765707105,0.025871518358173175,0.19220873024567725,0.0
0.017293812906004537,0.025918188800595855,0.19222884681568703,0.0
0.017305346406143476,0.025848987799762226,0.19217788483832893,0.0
0.01730990616201236,0.025826457241351276,0.19213201905870664,0.0
0.017299981987474202,0.02583772252055675,0.19218137171046396,0.0
0.01730722395267772,0.025861862404568482,0.1922669341882389,0.0
0.01726994124292627,0.02579829404333759,0.19222696926915278,0.0
0.017283620510532918,0.025912287940059654,0.19224145319955982,0.0
0.01726699081265817,0.025850328904429544,0.19217037465219194,0.0
0.01734128801122761,0.025790783857200607,0.19237288145695705,0.0
0.017295154010671856,0.025674107751143902,0.1923208465958651,0.0
0.017286302719867554,0.02573418924023977,0.19229885247932108,0.0
0.017287643824534873,0.025857570869633063,0.19231226352599426,0.0
0.017291398917603364,0.025907996405124235,0.19233506230533867,0.0
0.01728603449893409,0.025794807171202562,0.19241579680631124,0.0
0.017258139521853868,0.025805804229474573,0.19228866008384946,0.0
0.01731580702254856,0.025913092602860045,0.1920177569410511,0.0
0.01729756799907303,0.025834235648421723,0.1922060480363426,0.0
0.017271014126660125,0.025819751718014684,0.1925230851796967,0.0
0.017268868359192415,0.025811705090010774,0.1923275521192017,0.0
0.017270477684793197,0.0258514017881634,0.19230984953759309,0.0
0.017298104440939956,0.025779518577995132,0.1923533013288142,0.0
0.01726108995212197,0.025757792682384574,0.19235517887534845,0.0
0.01717847790461515,0.02572694727503625,0.1924050679689727,0.0
0.01719939913742532,0.02585301111376418,0.19250860124928967,0.0
0.01722058859116895,0.025773885938392395,0.19243886380658912,0.0
0.01722058859116895,0.025795880054936417,0.19321053543216413,0.0
0.01721415128876582,0.0258632035092358,0.19363727493730484,0.0
0.017216028835300067,0.025865885718570437,0.19219049122220172,0.0
0.01723239031224135,0.0257974893805372,0.19308313048876888,0.0
0.017202617788626882,0.025846573811361052,0.19435932569018907,0.0
0.017207177544495765,0.025927576533267084,0.1937180094382774,0.0
0.017184646986084816,0.025901559102721107,0.19485526619616345,0.0
0.017191084288487944,0.02591631125406161,0.19365631862358076,0.0
0.017217369939967385,0.025955203289413847,0.1938244931488625,0.0
0.017188133858219844,0.026034596685719096,0.19623231246856598,0.0
0.01720234956769342,0.02600857925517312,0.19465436871699915,0.0
0.017208786870096547,0.02595064353354496,0.19185575149723905,0.0
0.017232658533174815,0.025905582416723062,0.19210761095376144,0.0
0.017206641102628838,0.02590021799805379,0.19337951462024625,0.0
0.017234267858775597,0.025961104149950048,0.19260837943653816,0.0
0.01723936405651141,0.02592569898673284,0.19281142268317017,0.0
0.017160775323006548,0.025859716637100773,0.19395860361559433,0.0
0.017032297495877445,0.025837990741490215,0.19360937996022462,0.0
0.017126979485390124,0.025817069508680048,0.19142713444556408,0.0
0.017176600358080905,0.02589083026538256,0.19268240841417414,0.0
0.017246069579848002,0.02589378069565066,0.19407501150071757,0.0
0.01732465831335286,0.025945279114875687,0.19355761332006613,0.0
0.017241778044912583,0.02582377503201664,0.19135069147952694,0.0
0.0170813819267013,0.025854083997498035,0.19194667839368323,0.0
0.017000110983861803,0.025811973310944238,0.19353776497098982,0.0
0.01730856505734504,0.02591282438192658,0.19331219116594686,0.0
0.017394127535119954,0.025913629044726973,0.1914764870973214,0.0
0.017310442603879286,0.025814655520278874,0.19087406288076197,0.0
0.017253043324118058,0.025885465846713286,0.19244664221365956,0.0
0.017277451429063253,0.02594554733580915,0.1920585265229376,0.0
0.01731741634814934,0.025978270289691723,0.19129436508349956,0.0
0.017286302719867554,0.02593374561473675,0.19205638075546988,0.0
0.01729193535947029,0.02590102266085418,0.19244986086486113,0.0
0.017282815847732527,0.025899145114319934,0.19260542900627006,0.0
0.01723855939371102,0.025870177253505856,0.1927727988687514,0.0
0.01729622689440571,0.025893244253783733,0.1937284700546825,0.0
0.01732599941802018,0.025923284998331665,0.1926612189604305,0.0
0.017270477684793197,0.02587768743964284,0.19174739024011972,0.0
0.017261626393988896,0.025900754439920716,0.19208481217441703,0.0
0.017271550568527052,0.02588358830017904,0.19244878798112727,0.0
0.01726860013825895,0.025951716417278815,0.19232057837493163,0.0
0.01724821534731571,0.025772276612791613,0.1921344330471078,0.0
0.017365696116172804,0.02591926168432971,0.1925356915635695,0.0
0.017363550348705094,0.026031646255450996,0.19264163883228766,0.0
0.01729971376654074,0.026009920359840438,0.19249894529568498,0.0
0.01731661168534895,0.02599034023169759,0.19257807047105677,0.0
0.01731446591788124,0.025905582416723062,0.1926030150178689,0.0
0.017326535859887107,0.025879028544310158,0.19251235634235817,0.0
0.017330827394822525,0.02595761727781502,0.19247641473727403,0.0
0.017305346406143476,0.025869104369772,0.19267409356523676,0.0
0.017323317208685542,0.02585810731149999,0.19278942856662615,0.0
0.01726484504519046,0.025843891602026416,0.1926612189604305,0.0
0.01724526491704761,0.025843355160159488,0.19252710849369867,0.0
0.01725760307998694,0.025841745834558706,0.19256760985465168,0.0
0.01724365559144683,0.025707367146893402,0.1924906304467476,0.0
0.017270477684793197,0.025811705090010774,0.19257243783145403,0.0
0.017262967498656214,0.025809022880676137,0.1927269330891291,0.0
0.017286302719867554,0.02578810164786597,0.19268616350724263,0.0
0.017295690452538783,0.02573338457743938,0.19264780791375732,0.0
0.017261626393988896,0.02577361771745893,0.19265424521616045,0.0
0.017258139521853868,0.025921139230863956,0.19271835001925827,0.0
0.017338605801892972,0.025894317137517588,0.19273041996126414,0.0
0.017289253150135655,0.025887075172314068,0.19272827419379643,0.0
0.017275573882529007,0.0259112150563258,0.19269850167018196,0.0
0.017258139521853868,0.025938037149672168,0.1927100351703209,0.0
0.017244996696114148,0.025880101428044013,0.19259174973866341,0.0
0.01726108995212197,0.02593025874260172,0.19276072892674553,0.0
0.017269673021992806,0.025917652358728928,0.19285648379999207,0.0
0.017279865417464426,0.025905850637656526,0.1928111544622367,0.0
0.01725089755665035,0.025882247195511722,0.19277709040368682,0.0
0.017251165777583812,0.02590477775392267,0.19278862390382576,0.0
0.017244192033313756,0.02590692352139038,0.19273632082180034,0.0
0.01723641362624331,0.025902095544588034,0.1925609043313151,0.0
0.017229171661039787,0.025923284998331665,0.19297932898751843,0.0
0.01724150982397912,0.02594340156834144,0.19297798788285112,0.0
0.017254116207851913,0.025928381196067475,0.19286613975359676,0.0
0.017237486509977164,0.02579695293867027,0.19279693875276313,0.0
0.017279865417464426,0.02584120939269178,0.19301527059260257,0.0
0.01721710171903392,0.025772276612791613,0.19301017439486676,0.0
0.017227562335439005,0.02581063220627692,0.19294606959176894,0.0
0.01725170221945074,0.0258661539395039,0.19298603451085503,0.0
0.01723078098664057,0.025817069508680048,0.19295840775470827,0.0
0.017280670080264817,0.025928917637934402,0.19298013365031882,0.0
0.01730051842934113,0.02590021799805379,0.19292434369615838,0.0
0.017251433998517276,0.025995704650366862,0.1930453113371505,0.0
0.017152460474069174,0.026033255581051778,0.19342725794640278,0.0
0.016999306321061412,0.02601957631344513,0.1929610899640429,0.0
0.01668495138704197,0.026039424662521442,0.19228866008384946,0.0
0.017323317208685542,0.02633044437532954,0.19298067009218575,0.0
0.017310174382945822,0.026007506371439264,0.19291817461468871,0.0
0.017194839381556436,0.025797757601470662,0.1932580105373872,0.0
0.017233463195975206,0.025648626762464852,0.1937381260082872,0.0
0.017177136799947833,0.025616708471382674,0.19283717189278268,0.0
0.01687833868006929,0.025974246975689768,0.19263064177401565,0.0
0.017196448707157218,0.02638435678295574,0.19302063501127184,0.0
0.01731446591788124,0.02606329632559971,0.19298791205738927,0.0
0.017392518209519172,0.02585810731149999,0.1931000284075771,0.0
0.017232122091307887,0.02602842760424943,0.19346078556308574,0.0
0.0170931836477737,0.026149663466175015,0.19404416609336925,0.0
0.017383398697781407,0.026116940512292446,0.19366838856558663,0.0
0.01730561462707694,0.02572024175169966,0.19276555690354788,0.0
0.017111154450315767,0.026006165266771946,0.19231360463066158,0.0
0.016962291832243424,0.026151809233642725,0.19271754535645788,0.0
0.017079504380167053,0.02607429338387172,0.19395404385972545,0.0
0.01737991182564638,0.02597076010355474,0.19297986542938536,0.0
0.01745796411728431,0.025913092602860045,0.19295036112670436,0.0
0.017376156732577887,0.026044789081190716,0.19308929957023854,0.0
0.01725545731251923,0.02594340156834144,0.19401412534882131,0.0
0.01724526491704761,0.02605739546506351,0.19390388654516774,0.0
0.01739090888391839,0.025964591022085075,0.19297637855725033,0.0
0.01732814518548789,0.025905850637656526,0.1931775442573481,0.0
0.017150851148468392,0.026043984418390325,0.1923903158176322,0.0
0.017066361554427333,0.026234689502083006,0.19263949306481995,0.0
0.017498197257303862,0.02607053829080323,0.1943960719580736,0.0
0.017451526814881182,0.026067319639601665,0.19375073239215998,0.0
0.017396541523521127,0.026053372151061554,0.19333713571275898,0.0
0.017408611465526993,0.02599034023169759,0.19344656985361217,0.0
0.017413707663262803,0.02595761727781502,0.1934677593073558,0.0
0.0173450431042961,0.025986316917695634,0.1931952468389567,0.0
0.017335118929757944,0.025991413115431444,0.19327410379339502,0.0
0.017367305441773586,0.026035133127586024,0.19366463347251814,0.0
0.01737266986044286,0.026063832767466637,0.19347500127255932,0.0
0.01736676899990666,0.026051494604527308,0.19337897817837932,0.0
0.01735308973230001,0.025988730906096807,0.19349404495883524,0.0
0.01733780113909258,0.025935623161270994,0.19355519933166496,0.0
0.01733485070882448,0.025968882557020494,0.1935208670521816,0.0
0.01734128801122761,0.025974246975689768,0.19350584667990764,0.0
0.01738366691871487,0.02608153534907524,0.19353454631978825,0.0
0.01735818593003582,0.026002946615570382,0.19342323463240083,0.0
0.01738500802338219,0.02600053262716921,0.19359596891355144,0.0
0.01739385931418649,0.026077512035073285,0.19349753183097027,0.0
0.017362745685904703,0.026034328464785633,0.19349699538910334,0.0
0.01736113636030392,0.025978270289691723,0.19364371223970797,0.0
0.01736971943017476,0.025894853579384515,0.19359865112288607,0.0
0.017379643604712915,0.025972369429155522,0.19365953727478233,0.0
0.01736462323243895,0.02603781533692066,0.19362413211156512,0.0
0.01731446591788124,0.025964591022085075,0.19359784646008568,0.0
0.01736033169750353,0.026017698766910884,0.19366382880971775,0.0
0.017592342804949618,0.02621913268794211,0.1934862665517648,0.0
0.017570885130272523,0.026418420841505627,0.19356405062246926,0.0
0.01735818593003582,0.026036742453186806,0.19335269252689988,0.0
0.017643036561374253,0.02611425830295781,0.19325747409552027,0.0
0.017993869542344755,0.026381942794554566,0.19351818484284697,0.0
0.01760843606095744,0.026132765547366803,0.1934543482606826,0.0
0.01755827874639973,0.02569181033275251,0.19318210401321698,0.0
0.017997624635413247,0.026026281836781722,0.19297530567351648,0.0
0.017963560576863356,0.026488426505139648,0.19339989941118949,0.0
0.017834546307867325,0.02680144033449177,0.1933494738756983,0.0
0.017435165337939897,0.027013871313795006,0.19354581159899373,0.0
0.017345311325229564,0.026540461366231605,0.19379954860205037,0.0
0.01729917732467381,0.02613115622176602,0.19388779328915992,0.0
0.017123492613255097,0.026377383038685684,0.19401734400002288,0.0
0.01756552071160325,0.02664801796055054,0.19355063957579607,0.0
0.018208982730982627,0.027451339656274276,0.19237824587562632,0.0
0.018008353472751794,0.027805391288446342,0.1922409167576929,0.0
0.017358990592836212,0.02685159764904948,0.19310485638437944,0.0
0.017236950068110237,0.026497009575010486,0.1946414941121929,0.0
0.017381789372180625,0.026960495348035733,0.19370003863573534,0.0
0.01773423167875191,0.026961568231769588,0.19388323353329104,0.0
0.017342629115894927,0.025583985517500105,0.19420724442091516,0.0
0.016913743843286495,0.025264534385744858,0.19398864436014226,0.0
0.01755318254866392,0.026043447976523398,0.194127314582743,0.0
0.017790826295712745,0.0270597370934173,0.19390603231263545,0.0
0.01706180179855845,0.025958958382482338,0.1938199333929936,0.0
0.01722058859116895,0.026439610295249258,0.1941412620712831,0.0
0.017449649268346936,0.026194724582996914,0.1941042475824651,0.0
0.017476471361693304,0.026347074073204288,0.19397335576693484,0.0
0.01736542789523934,0.026279750618904904,0.19393392728971567,0.0
0.017426314047135596,0.026555213517572108,0.1938430003932715,0.0
0.017407270360859674,0.02675208768273445,0.1936257414371659,0.0
0.017364086790572022,0.02631730154958982,0.19375824257829696,0.0
0.017399223732855764,0.026166293164049764,0.19377674982270596,0.0
0.017546208804393865,0.026879224405196238,0.19356244129686848,0.0
0.017329218069221743,0.026880565509863556,0.19350155514497222,0.0
0.017273428115061298,0.026226374653145628,0.19354366583152602,0.0
0.017396273302587664,0.02619526102486384,0.19370003863573534,0.0
0.01738581268618258,0.026297184979580043,0.1939669184645317,0.0
0.017397614407254982,0.0264149339693706,0.19384273217233802,0.0
0.017378302500045597,0.026420566608973337,0.19378050491577445,0.0
0.017394932197920345,0.026394012736560432,0.19373088404308367,0.0
0.017408611465526993,0.026346001189470433,0.19353803319192328,0.0
0.017432751349538724,0.02636772708508099,0.19356619638993697,0.0
0.017459573442885092,0.02632615284039412,0.19352703613365127,0.0
0.017446698838078836,0.026347074073204288,0.19364880843744378,0.0
0.017433019570472188,0.0263728232828168,0.19373088404308367,0.0
0.017479421791961405,0.026475820121266855,0.19359275026234987,0.0
0.01744482129154459,0.026370409294415628,0.1932867101772678,0.0
0.01749229639676766,0.026320788421724847,0.1934425465396102,0.0
0.017429800919270624,0.026361558003611327,0.193898253905565,0.0
0.017441602640343026,0.02637201862001641,0.19371720477547702,0.0
0.017477812466360623,0.02626768067689904,0.19363432450703674,0.0
0.017498197257303862,0.02627143576996753,0.19361420793702697,0.0
0.017504902780640454,0.026282701049173005,0.19338487903891552,0.0
0.017507048548108164,0.026314887561188646,0.19339346210878636,0.0
0.017468692954622857,0.02629691675864658,0.19401814866282327,0.0
0.01746949761742325,0.026192042373662277,0.19392909931291333,0.0
0.017597975444552355,0.026273849758368703,0.19379901216018344,0.0
0.01756632537440364,0.026204112315668143,0.19355680865726574,0.0
0.01781657550532526,0.026104334128419653,0.19355841798286652,0.0
0.01860219461944039,0.026044520860257252,0.19367858096105825,0.0
0.01763767214270498,0.025803926682940327,0.1933156780380819,0.0
0.01783481452880079,0.02571514555396385,0.1930179528019372,0.0
0.018571349212092067,0.02580714533414189,0.19436120323672332,0.0
0.01928267112763776,0.02573284813557245,0.19454225236681133,0.0
0.018097402822661736,0.02567169376274273,0.1933754913062443,0.0
0.018107595218133356,0.025920871009930492,0.193761729450432,0.0
0.018050732380239055,0.0262228877810106,0.19270225676325045,0.0
0.017087551008170963,0.026293161665578088,0.19411148954766863,0.0
0.0173361918134918,0.026457581097791324,0.1956612701012218,0.0
0.017199935579292246,0.026515785040352947,0.1947654121834531,0.0
0.016956927413574147,0.026354047817474344,0.19346346777242038,0.0
0.017649742084710845,0.026536706273163114,0.19281303200877095,0.0
0.019039394740986197,0.026316228665855965,0.1938274435791306,0.0
0.017218174602767776,0.02618506862939222,0.19399749565094657,0.0
0.01721629705623353,0.026240590362619207,0.19377299472963747,0.0
0.017049731856552584,0.026318642654257138,0.19330494920074334,0.0
0.017507853210908555,0.026313546456521328,0.19356539172713658,0.0
0.017626406863499505,0.026245686560355017,0.19352113527311507,0.0
0.017311247266679677,0.026266876014098647,0.19349887293563758,0.0
0.01732599941802018,0.026266607793165184,0.19353481454072172,0.0
0.017437042884474143,0.02622986152528066,0.19370942636840657,0.0
0.01742524116340174,0.026247832327822726,0.19351711195911311,0.0
0.017438115768207998,0.026175144454854065,0.19358041209941054,0.0
0.017489077745566097,0.026219400908875572,0.19368072672852596,0.0
0.01748773664089878,0.0261719258036525,0.19366758390278624,0.0
0.01747539847795945,0.026064369209333565,0.19364451690250836,0.0
0.017461987431286265,0.02599034023169759,0.19369869753106803,0.0
0.017467083629022075,0.026126328244963675,0.19370352550787037,0.0
0.017429264477403696,0.02613759352416915,0.19365497751891345,0.0
0.01748344510596336,0.026186677954993003,0.19360106511128725,0.0
0.017494978606102298,0.02615797831511239,0.19366436525158467,0.0
0.017504366338773527,0.02608958197707915,0.19362922830930093,0.0
0.01756471604880286,0.02610406590748619,0.19367723985639093,0.0
0.017582150409477998,0.026111844314556636,0.19377004429936937,0.0
0.017525824013450625,0.02588197897457826,0.19362922830930093,0.0
0.017552109664930066,0.02586749504417122,0.1936375431582383,0.0
0.017567398258137495,0.026092264186413788,0.19365202708864535,0.0
0.017579736421076825,0.026225569990345237,0.19384916947474115,0.0
0.017566057153470177,0.02609092308174647,0.19385560677714428,0.0
0.01755452365333124,0.026010456801707365,0.19386848138195054,0.0
0.017548354571861574,0.026110234988955854,0.19440358214421058,0.0
0.01755318254866392,0.026168438931517473,0.19478150543946093,0.0
0.01753279775772068,0.02619660212953116,0.19515862407191087,0.0
0.017558546967333194,0.026015552999443175,0.19522541108434333,0.0
0.017526360455317552,0.026067319639601665,0.19498749911636104,0.0
0.017445357733411517,0.026362362666411718,0.19520878138646858,0.0
0.017488809524632633,0.02648493963300462,0.19533135835306148,0.0
0.017447235279945763,0.0263669224222806,0.1966072853335482,0.0
0.01735604016256811,0.026261779816362837,0.19590696047627454,0.0
0.017438652210074925,0.026309523142519373,0.19390925096383702,0.0
0.01736971943017476,0.02624085858355267,0.1953356498879969,0.0
0.017189743183820626,0.026239517478885352,0.19706299269950303,0.0
0.0173509439648323,0.026366385980413673,0.1980025706294263,0.0
0.01756927580467174,0.026235494164883397,0.19270681651911933,0.0
0.017341556232161073,0.026061418779065464,0.1905851889354216,0.0
0.016913743843286495,0.02602091741811245,0.1943266027363065,0.0
0.017089160333771745,0.026171389361785573,0.19856047017103076,0.0
0.017450185710213863,0.02637631015495183,0.1965659793097948,0.0
0.017509730757442804,0.026135715977634904,0.19225298669969876,0.0
0.01747915357102794,0.02607429338387172,0.193455152923483,0.0
0.01747754424542716,0.02624005392075228,0.19374375864788992,0.0
0.017365696116172804,0.02611640407042552,0.1942852967125531,0.0
0.01766100736391632,0.026133838431100658,0.19452267223866848,0.0
0.017656179387113974,0.02612445069842943,0.19170259734423128,0.0
0.017609777165624757,0.0262228877810106,0.1923932662479003,0.0
0.01763391704963649,0.0262199373507425,0.19369091912399758,0.0
0.01767924638739185,0.026127669349630993,0.1932971707936729,0.0
0.01758161396761107,0.026090654860813006,0.19308125294223463,0.0
0.01758966059561498,0.02605954123253122,0.19326444783979033,0.0
0.017567398258137495,0.02615583254764468,0.1936960153217334,0.0
0.017601730537620847,0.026157441873245462,0.19394867944105618,0.0
0.017655374724313583,0.026155296105777753,0.19312604583812307,0.0
0.01765591116618051,0.026155296105777753,0.19385507033527735,0.0
0.017550768560262747,0.026102188360951944,0.1939454607898546,0.0
0.017617555572695204,0.026248636990623117,0.19419705202544355,0.0
0.017622115328564086,0.026172462245519428,0.19393768238278417,0.0
0.017585637281613026,0.02596700501048625,0.1940932505241931,0.0
0.017657788712714756,0.026073220500137866,0.19419973423477818,0.0
0.017687829457262688,0.026158246536045853,0.19392024802210903,0.0
0.01766476245698481,0.02620598986220239,0.1939596764993282,0.0
0.0176988265155347,0.026175680896720992,0.19425606063080555,0.0
0.017656447608047438,0.02609896970975038,0.19389181660316188,0.0
0.017625065758832187,0.026166561384983227,0.19402136731402483,0.0
0.017684074364194197,0.026314887561188646,0.19425015977026935,0.0
0.017652692514978946,0.0262228877810106,0.19423916271199734,0.0
0.017687829457262688,0.02624515011848809,0.1939366094990503,0.0
0.01779699537718241,0.026511225284484064,0.19387786911462176,0.0
0.01767495485245643,0.026242736130086916,0.1942018800022459,0.0
0.01768058749205917,0.02613330198923373,0.19416352440876058,0.0
0.01771679731807677,0.026315424003055574,0.19406347800057863,0.0
0.017678709945524923,0.026204112315668143,0.1940688424192479,0.0
0.017648937421910454,0.026145103710306133,0.1942061715371813,0.0
0.01763123484030185,0.02608234001187563,0.19431828788736913,0.0
0.017624261096031796,0.026044520860257252,0.1942815416194846,0.0
0.017586978386280344,0.02621859624607518,0.19401680755815595,0.0
0.017548354571861574,0.02634492830573658,0.19370808526373925,0.0
0.01752260536224906,0.026282164607306077,0.19415467311795628,0.0
0.017363550348705094,0.026223156001944064,0.19459804232097178,0.0
0.01723507252157599,0.02640554623669937,0.1937078170428058,0.0
0.017753811806894757,0.02630362228198317,0.19337924639931278,0.0
0.017729403701949562,0.02603701067412027,0.19454600745987982,0.0
0.017489614187433025,0.02614778591964077,0.1939146153825063,0.0
0.017475666698892913,0.02634144143360155,0.1940962009544612,0.0
0.017667176445385985,0.026282969270106468,0.19488691626631216,0.0
0.017662616689517102,0.026132229105499876,0.1940481894073712,0.0
0.017574103781474087,0.026061418779065464,0.19419839313011086,0.0
0.01761299581682632,0.026136520640435295,0.19432177475950416,0.0
0.017619969561096377,0.026309523142519373,0.19364478512344183,0.0
0.017374547406977105,0.02634653763133736,0.19352918190111898,0.0
0.017599584770153137,0.026281091723572222,0.19449424081972133,0.0
0.017600925874820456,0.026152345675509652,0.19467448528700892,0.0
0.017403515267791183,0.02607268405827094,0.19576131650940376,0.0
0.0176988265155347,0.02615502788484429,0.19452267223866848,0.0
0.017257334859053477,0.026203575873801215,0.19363110585583518,0.0
0.017342629115894927,0.02649727779594395,0.19417693545543377,0.0
0.017343970220562246,0.026209476734337416,0.1942284338746588,0.0
0.017292740022270683,0.02604800773239228,0.1933990947483891,0.0
0.017683269701393806,0.026169243594317864,0.19381832406739283,0.0
0.01781442973785755,0.02626419380476401,0.19455244476228295,0.0
0.017717065539010233,0.026183191082857975,0.1941235594896745,0.0
0.017752202481293975,0.026171389361785573,0.19447197848224385,0.0
0.017681660375793024,0.02617031647805172,0.19480054912573685,0.0
0.017621310665763695,0.026151809233642725,0.19457926685562932,0.0
0.01766690822445252,0.026070270069869766,0.19443335466782505,0.0
0.017655374724313583,0.02615663721044507,0.19431211880589946,0.0
0.01765591116618051,0.02614644481497345,0.1945025556686587,0.0
0.017707409585405537,0.02627867773517105,0.19422038724665489,0.0
0.01767710061992414,0.026238981037018425,0.19451408916879764,0.0
0.017662884910450566,0.026186677954993003,0.19469647940355295,0.0
0.017686220131661906,0.02629262522371116,0.19451274806413033,0.0
0.017639549689239226,0.026241126804486134,0.19438212446953348,0.0
0.017678709945524923,0.026305499828517417,0.19455029899481524,0.0
0.01766905399192023,0.02630201295638239,0.19447868400558044,0.0
0.017659398038315538,0.02622369244381099,0.19439553551620667,0.0
0.017651351410311628,0.026177290222321774,0.19448458486611664,0.0
0.017618360235495595,0.0262502463162239,0.19439955883020862,0.0
0.017611654712159003,0.02632615284039412,0.19448512130798357,0.0
0.017595561456151182,0.026074561604805185,0.19467233951954122,0.0
0.017742010085822355,0.026149663466175015,0.19460716183270954,0.0
0.01770258160860319,0.026259634048895128,0.19449558192438865,0.0
0.017607363177223584,0.026301476514515462,0.1945143573897311,0.0
0.017929228297380004,0.026466164167662162,0.1942726903286803,0.0
0.018277647289949333,0.02686339937012188,0.1942469411190678,0.0
0.018089892636524753,0.026611808134532944,0.1943333082596431,0.0
0.017678709945524923,0.025633606390190886,0.1939100556266374,0.0
0.017925473204311513,0.02576852151972312,0.19436013035298946,0.0
0.018081309566653915,0.026299330747047753,0.19486706791723585,0.0
0.018178137323634304,0.026356461805875517,0.19475334224144725,0.0
0.01831519822063425,0.025839331846157533,0.1944395237492947,0.0
0.018449576908299552,0.026365581317613282,0.19403370547696416,0.0
0.017856540424411347,0.027009579778859587,0.19372444674068054,0.0
0.017146827834466437,0.026638630227879313,0.1942410402585316,0.0
0.017090769659372528,0.026568356343311828,0.19496389567421624,0.0
0.017175259253413587,0.026656869251354843,0.19535818044640785,0.0
0.01755961985106705,0.026413324643769817,0.19511651338535707,0.0
0.018127175346276204,0.026482257423669983,0.19476487574158619,0.0
0.0183524809303857,0.026727679577789255,0.19445454412156868,0.0
0.017764004202366377,0.025927844754200548,0.19442503981888767,0.0
0.01756632537440364,0.02651524859848602,0.1943459146435159,0.0
0.017537357513589563,0.026387038992290376,0.19456719691362345,0.0
0.017476471361693304,0.02629477099117887,0.1945513718785491,0.0
0.017739596097421182,0.02632829860786183,0.19500064194210076,0.0
0.017820598819327214,0.0262620480372963,0.19469057854301675,0.0
0.017712237562207883,0.026458385760591716,0.1944671505054415,0.0
0.017754616469695148,0.02623200729274837,0.19491507946432585,0.0
0.017650546747511237,0.02658444959931965,0.19475039181117915,0.0
0.017648400980043527,0.026827994206904675,0.194636934356324,0.0
0.017763199539565986,0.026588472913321604,0.19482361612601473,0.0
0.017857345087211738,0.026052567488261163,0.19470291670595608,0.0
0.01782033059839375,0.025886002288580214,0.19480215845133764,0.0
0.017707409585405537,0.026020112755312057,0.19467073019394043,0.0
0.017654838282446655,0.026391330527225795,0.19461386735604613,0.0
0.01770338627140358,0.02665525992575406,0.19445803099370373,0.0
0.017763199539565986,0.02652329522648993,0.19449719124998943,0.0
0.0177379867718204,0.02634278253826887,0.1945771210881616,0.0
0.017735572783419227,0.026395085620294287,0.19444810681916555,0.0
0.0177135786668752,0.026501301109945904,0.19444435172609706,0.0
0.017711701120340956,0.026306840933184736,0.19445776277277024,0.0
0.017698290073667772,0.026257756502360882,0.19442825847008924,0.0
0.017671736201254867,0.026150468128975406,0.1942852967125531,0.0
0.017754616469695148,0.026327762165994903,0.19449531370345519,0.0
0.017736913888086545,0.026262852700096692,0.194455885226236,0.0
0.017732354132217663,0.026317569770523283,0.19434403709698164,0.0
0.01773154946941727,0.02623576238581686,0.19425337842147092,0.0
0.01771679731807677,0.02629557565397926,0.19437783293459807,0.0
0.017770441504769505,0.026287260805041887,0.19418229987410304,0.0
0.017882557854957324,0.026215914036740545,0.19437434606246304,0.0
0.018056365019841793,0.026100847256284625,0.1944027774814102,0.0
0.018874707087839497,0.02624219968821999,0.19418498208343768,0.0
0.018469425257375865,0.026278409514237586,0.19390308188236735,0.0
0.01785975907561291,0.026168438931517473,0.1941884689555727,0.0
0.017480226454761796,0.026441487841783504,0.19521870556100673,0.0
0.01766476245698481,0.026412519980969426,0.1947506600321126,0.0
0.017964097018730283,0.026221010234476354,0.19392212556864327,0.0
0.018622042968516703,0.02607053829080323,0.19466777976367233,0.0
0.017982336042205813,0.02587178657910664,0.19483461318428674,0.0
0.018171700021231176,0.02593964647527295,0.19341706555093116,0.0
0.018562497921287766,0.02609762860508306,0.19463827546099133,0.0
0.01863572223612335,0.026276800188636804,0.19458355839056474,0.0
0.018548550432747654,0.026238444595151497,0.19358872694834792,0.0
0.018296154534358327,0.02638596610855652,0.19454708034361368,0.0
0.018563839025955084,0.026297184979580043,0.1947174006363631,0.0
0.018328877488240896,0.026216718699540936,0.19377299472963747,0.0
0.017529579106519116,0.026356193584942053,0.19502826869824752,0.0
0.017166139741675822,0.026790175055286296,0.19462647373991893,0.0
0.016934933297030125,0.026766303392208025,0.193898253905565,0.0
0.016981335518519346,0.026597860645992833,0.1945977741000383,0.0
0.01775193426036051,0.026462140853660207,0.19409083653579193,0.0
0.017856272203477883,0.026519808354354902,0.19390925096383702,0.0
0.01757946820014336,0.02646160441179328,0.19391783403370785,0.0
0.017558546967333194,0.026534560505695404,0.1939728193250679,0.0
0.01762023778202984,0.026589814017988923,0.1942209236885218,0.0
0.017556401199865485,0.026407423783233616,0.19419785668824394,0.0
0.01753789395545649,0.026310327805319764,0.19442664914448846,0.0
0.01781818483092604,0.02632320241012602,0.19476889905558814,0.0
0.017868610366417213,0.02638596610855652,0.19424345424693276,0.0
0.01772564860888107,0.026398572492429315,0.19384165928860417,0.0
0.017639013247372298,0.02644497471391853,0.19403531480256495,0.0
0.01765296073591241,0.026499155342478195,0.1941391163038154,0.0
0.017675759515256823,0.02642807679511032,0.19409217764045925,0.0
0.017697217189933917,0.02640179114363088,0.19407796193098567,0.0
0.017710360015673637,0.02648628073767194,0.19414823581555316,0.0
0.017682733259526878,0.026314887561188646,0.1941176586291383,0.0
0.017695071422466208,0.026255610734893173,0.1939559214062597,0.0
0.017731013027550344,0.026425662806709146,0.19392319845237713,0.0
0.017727526155415316,0.026411178876302108,0.1939012043358331,0.0
0.017667712887252912,0.02633983210800077,0.19388189242862372,0.0
0.01769668074806699,0.026389721201625013,0.19427966407295036,0.0
0.017711432899407492,0.026285115037574178,0.19414609004808545,0.0
0.017739059655554255,0.02622369244381099,0.1940253906280268,0.0
0.01776051733023135,0.026296380316779652,0.19399079012760997,0.0
0.017692120992198107,0.026207062745936243,0.19420053889757857,0.0
0.01766476245698481,0.02623576238581686,0.19454037482027708,0.0
0.017727257934481853,0.026256415397693564,0.19420724442091516,0.0
0.017766686411701014,0.02610996676802239,0.19386687205634975,0.0
0.01767710061992414,0.026225301769411773,0.19413777519914807,0.0
0.017673881968722577,0.026615295006667972,0.195098542582815,0.0
0.01767334552685565,0.026482525644603447,0.19677787384723114,0.0
0.017698290073667772,0.026442828946450822,0.19631009653927045,0.0
0.017704995597004364,0.026287797246908814,0.19374885484562573,0.0
0.01771116467847403,0.02627653196770334,0.19503765643091875,0.0
0.017709287131939783,0.026381138131754175,0.19599332761684984,0.0
0.017721088853012188,0.026061686999998928,0.19541209285403405,0.0
0.01772484394608068,0.026320520200791384,0.19613950802558755,0.0
0.01764276834044079,0.026465091283928308,0.19776760909171212,0.0
0.01757490844427448,0.026354047817474344,0.19702436888508426,0.0
0.01770982357380671,0.026323470631059484,0.19258906752932878,0.0
0.0175400397229242,0.02641707973683831,0.19320946254843027,0.0
0.017032833937744372,0.02640340046923166,0.19744011133195297,0.0
0.017371060534842078,0.0263130100146544,0.19518598260712416,0.0
0.017824353912395705,0.02642727213230993,0.19262179048321135,0.0
0.017313393034147386,0.026244345455687698,0.1943915122022047,0.0
0.017639549689239226,0.02625990226982859,0.1936131350532931,0.0
0.01783776495906889,0.026565942354910655,0.1949936681978307,0.0
0.017644377666041572,0.026424858143908755,0.1949051552897877,0.0
0.017649742084710845,0.02624595478128848,0.1926553180998943,0.0
0.017759980888364422,0.02639320807376004,0.1959235901741493,0.0
0.01771277400407481,0.026192042373662277,0.19416808416462947,0.0
0.017726185050747998,0.02620464875753507,0.1915776063892372,0.0
0.01779565427251509,0.026417616178705236,0.1929833523015204,0.0
0.017763199539565986,0.026271703990900994,0.1937807731367079,0.0
0.017672809084988722,0.026117476954159374,0.1938126914277901,0.0
0.01768863412006308,0.026380869910820712,0.1944996052383906,0.0
0.017751666039427048,0.026315424003055574,0.19458516771616552,0.0
0.01774817916729202,0.0262287886415468,0.19374349042695646,0.0
0.017740400760221573,0.026405278015765907,0.19360562486715613,0.0
0.017645182328841963,0.02620384409473468,0.194389366434737,0.0
0.017672272643121795,0.02627787307237066,0.19412758280367645,0.0
0.01768514724792805,0.026331517259063394,0.19402860927922835,0.0
0.01772484394608068,0.026397231387761996,0.19455298120414988,0.0
0.017726721492614925,0.026297989642380434,0.19428288272415192,0.0
0.01774013253928811,0.02622503354847831,0.1940165393372225,0.0
0.017686220131661906,0.026314887561188646,0.19391649292904053,0.0
0.017696948969000453,0.026312741793720937,0.1941871278509054,0.0
0.017738523213687327,0.026348415177871606,0.1941737168042322,0.0
0.017762931318632522,0.026402864027364734,0.19391863869650824,0.0
0.017790826295712745,0.026476356563133782,0.19429227045682315,0.0
0.017741205423021964,0.02648789006327272,0.19442959957475656,0.0
0.017656447608047438,0.026291284119043842,0.19439660839994052,0.0
0.017662884910450566,0.02633768634053306,0.19431453279430064,0.0
0.017647328096309672,0.026290747677176915,0.19433196715497578,0.0
0.01769158455033118,0.026550653761703225,0.1944314771212908,0.0
0.017670126875654085,0.02647903877246842,0.19421314528145137,0.0
0.01773369523688498,0.0264688463769968,0.19426947167747874,0.0
0.017738254992753864,0.026431563667245347,0.19426732591001103,0.0
0.017713846887808665,0.02638730721322384,0.1941509180248878,0.0
0.01764652343350928,0.026484671412071156,0.1941050522452655,0.0
0.017684610806061124,0.026514712156619092,0.19414313961781735,0.0
0.01775193426036051,0.026630047158008475,0.1942903929102889,0.0
0.017633648828703025,0.026573184320114174,0.19468333657781323,0.0
0.017490418850233416,0.026458385760591716,0.1943636172251245,0.0
0.017369987651108223,0.026519271912487975,0.1947426134041087,0.0
0.017225416567971295,0.02658149916905155,0.1949531668368777,0.0
0.01746735184995554,0.026570770331713,0.19418229987410304,0.0
0.017636599258971125,0.026469919260730654,0.19318827309468664,0.0
0.0173989555119223,0.026252928525558536,0.19421153595585058,0.0
0.017530383769319507,0.026451948458188587,0.19460930760017725,0.0
0.01781094286572252,0.026427808574176856,0.19494190155767221,0.0
0.017714651550609056,0.026152345675509652,0.19455244476228295,0.0
0.01755532831613163,0.026175144454854065,0.1947455638343768,0.0
0.017625065758832187,0.026342514317335405,0.19430621794536326,0.0
0.017572494455873305,0.026377383038685684,0.19392668532451215,0.0
0.017759444446497494,0.026296380316779652,0.19432687095723997,0.0
0.017569544025605205,0.026368531747881382,0.19382234738139478,0.0
0.017369182988307832,0.026559505052507527,0.19430353573602863,0.0
0.017452599698615037,0.02664131243721395,0.19554110712303008,0.0
0.017526360455317552,0.026364508433879427,0.1956296200310731,0.0
0.017570885130272523,0.026217255141407863,0.19328617373540088,0.0
0.017684610806061124,0.026500496447145513,0.193473660167892,0.0
0.017632844165902634,0.026373896166550656,0.19520288052593238,0.0
0.017494710385168834,0.026516321482219874,0.19504865348919076,0.0
0.01767924638739185,0.026380601689887248,0.19459804232097178,0.0
0.01767200442218833,0.02609682394228267,0.19414984514115394,0.0
0.017604412746955483,0.026262852700096692,0.1949051552897877,0.0
0.01773423167875191,0.026193383478329595,0.19444354706329667,0.0
0.017714651550609056,0.026192847036462668,0.19433196715497578,0.0
0.01763633103803766,0.02619311525739613,0.19409512807072735,0.0
0.017669322212853694,0.026086095104944123,0.19452803665733776,0.0
0.017643036561374253,0.02609092308174647,0.19471203621769384,0.0
0.017595561456151182,0.026100847256284625,0.19438373379513427,0.0
0.017619164898295986,0.02619311525739613,0.1946806543684786,0.0
0.017606022072556266,0.026183191082857975,0.194692456089551,0.0
0.017710360015673637,0.026186141513126076,0.19433652691084466,0.0
0.017739596097421182,0.026252123862758145,0.19444166951676242,0.0
0.01766610356165213,0.026229056862480265,0.19473805364823982,0.0
0.017653497177779337,0.026336881677732668,0.19468440946154708,0.0
0.017613264037759785,0.026177290222321774,0.19477426347425741,0.0
0.017636599258971125,0.026271703990900994,0.19470533069435725,0.0
0.01765805693364822,0.026308450258785518,0.19472142395036507,0.0
0.017659398038315538,0.02634439186386965,0.19476594862532004,0.0
0.01767200442218833,0.026183727524724903,0.19463747079819094,0.0
0.01767334552685565,0.026203039431934288,0.19471793707823004,0.0
0.017662884910450566,0.026208135629670098,0.19464766319366256,0.0
0.017713310445941738,0.026271972211834457,0.194817983486412,0.0
0.017704995597004364,0.026352170270940098,0.19482924876561747,0.0
0.017679782829258778,0.026307645595985127,0.1946583920310011,0.0
0.017662884910450566,0.02645731287685786,0.19473617610170557,0.0
0.01771196934127442,0.02639615850402814,0.1947085493455588,0.0
0.017778488132773416,0.026289138351576133,0.19477614102079166,0.0
0.017817111947192186,0.026377383038685684,0.19480269489320456,0.0
0.017846348028939727,0.026157710094178926,0.19458704526269976,0.0
0.01790133332029978,0.02609172774454686,0.19454708034361368,0.0
0.017820867040260677,0.026419493725239482,0.19440063171394248,0.0
0.017806919551720566,0.026383820341088812,0.19406830597738098,0.0
0.01836481909332503,0.025615367366715356,0.19484936533562724,0.0
0.018631162480254468,0.025775495263993177,0.19466831620553926,0.0
0.017908038843636374,0.026362094445478254,0.19414850403648662,0.0
0.017494978606102298,0.0264178843996387,0.19386258052141433,0.0
0.01765725227084783,0.02655387241290479,0.19475307402051378,0.0
0.01755398721146431,0.02672016939165227,0.19492849051099903,0.0
0.017620774223896768,0.026437732748715012,0.194984012244226,0.0
0.01776051733023135,0.0261062116749539,0.19510417522241774,0.0
0.017900796878432854,0.025977733847824796,0.19487940608017518,0.0
0.01782033059839375,0.026346269410403897,0.1949022048595196,0.0
0.017451526814881182,0.02620169832726697,0.1947927707186664,0.0
0.017426045826202132,0.026238176374218034,0.19476970371838853,0.0
0.017717065539010233,0.02673465332205931,0.194836490730821,0.0
0.017783316109575762,0.02631810621239021,0.1944470339354317,0.0
0.017634453491503416,0.02579105207813407,0.19482442078881512,0.0
0.017525019350650234,0.02629557565397926,0.1951983207700635,0.0
0.01772779437634878,0.026656332809487916,0.19483675895175445,0.0
0.017827304342663806,0.025943133347407978,0.19486089883576618,0.0
0.017704995597004364,0.026033792022918705,0.19488316117324367,0.0
0.017686756573528833,0.026426735690443,0.19461976821658233,0.0
0.017911793936704865,0.026454898888456688,0.19458784992550016,0.0
0.017873974785086486,0.026210013176204344,0.194884502277911,0.0
0.017567934700004423,0.026166293164049764,0.19510390700148428,0.0
0.017514022292378223,0.026164415617515518,0.1950454348379892,0.0
0.017645182328841963,0.026198479676065405,0.1948600941729658,0.0
0.017682733259526878,0.026198479676065405,0.19475870666011652,0.0
0.017778488132773416,0.02626714423503211,0.19480135378853725,0.0
0.017784925435176544,0.0261689753733844,0.19481315550960965,0.0
0.0177468380626247,0.026253464967425463,0.19475602445078188,0.0
0.017697217189933917,0.026212158943672053,0.19446983271477614,0.0
0.017761858434898668,0.02627867773517105,0.1946688526474062,0.0
0.017754348248761685,0.026254269630225854,0.19484292803322412,0.0
0.017719479527411406,0.026180777094456802,0.1945261591108035,0.0
0.017717333759943697,0.0262620480372963,0.19479411182333373,0.0
0.017725112167014143,0.026091995965480324,0.19494377910420646,0.0
0.017800214028383974,0.026043179755589934,0.1947174006363631,0.0
0.01793834780911777,0.026159855861646635,0.19492044388299512,0.0
0.01787933920375576,0.026054981476662336,0.1949995690583669,0.0
0.018435897640692905,0.026057931906930436,0.1949848169070264,0.0
0.018384131000534414,0.025934282056603676,0.19523613992168187,0.0
0.017861368401213693,0.025815996624946193,0.19478633341626328,0.0
0.017554791874264702,0.026104602349353117,0.19449558192438865,0.0
0.017866464598949503,0.026056322581329654,0.19422065546758835,0.0
0.01872155293483173,0.02575162360091491,0.19537293259774835,0.0
0.018373133942262403,0.025661769588204573,0.19552420920422187,0.0
0.01824572899886715,0.025790515636267143,0.19486465392883467,0.0
0.017681660375793024,0.026194188141129986,0.19468226369407937,0.0
0.017467620070889003,0.026290747677176915,0.1941766672345003,0.0
0.018080504903853524,0.026029500487983286,0.19460984404204418,0.0
0.019220980312941113,0.025892171370049878,0.19471203621769384,0.0
0.01938459508235396,0.025760743112652675,0.19482200680041395,0.0
0.018604608607841563,0.025864812834836583,0.19572510668338616,0.0
0.017065288670693478,0.02597961139435904,0.1953984135864274,0.0
0.017206641102628838,0.02625239208369161,0.19526349845689517,0.0
0.017491759954900734,0.026633534030143503,0.19505562723346082,0.0
0.017357649488168893,0.02633849100333345,0.1943126552477664,0.0
0.017319293894683587,0.026338222782399986,0.19392239378957674,0.0
0.017201544904893028,0.026188823722460713,0.19353508276165518,0.0
0.01776132199303174,0.02606544209306742,0.19514467658337076,0.0
0.01814219571855017,0.026023599627447085,0.19499018132569568,0.0
0.017684074364194197,0.025976392743157477,0.19502156317491093,0.0
0.017671736201254867,0.026458385760591716,0.1944395237492947,0.0
0.017257066638120013,0.026331517259063394,0.19458060796029664,0.0
0.017836155633468107,0.02620545342033546,0.19483327207961942,0.0
0.01798421358874006,0.02622422888567792,0.19468628700808133,0.0
0.017792435621313527,0.026216182257674008,0.1946516865076645,0.0
0.01762613864256604,0.02621350004833937,0.19464685853086217,0.0
0.017769905062902578,0.026085022221210268,0.19468762811274865,0.0
0.018315734662501176,0.026013943673842393,0.19459401900696982,0.0
0.017517777385446714,0.02598470759209485,0.19476755795092082,0.0
0.017448039942746154,0.026196333908597696,0.19463452036792284,0.0
0.017754348248761685,0.026242736130086916,0.1945497625529483,0.0
0.017790826295712745,0.026136520640435295,0.19439634017900706,0.0
0.017683269701393806,0.026111039651756245,0.19436710409725952,0.0
0.017726721492614925,0.026247564106889262,0.19460474784430837,0.0
0.01772055241114526,0.026145908373106524,0.1945468121226802,0.0
0.017778219911839952,0.026051494604527308,0.19470184382222222,0.0
0.01779055807477928,0.025940182917139877,0.19462405975151775,0.0
0.017880412087489615,0.026035133127586024,0.1947123044386273,0.0
0.017772587272237215,0.02593320917286982,0.1945977741000383,0.0
0.017780633900241125,0.026090386639879542,0.1945897274720344,0.0
0.01775837156276364,0.02603191447638446,0.19478016433479362,0.0
0.01777580592343878,0.026019308092511666,0.19474154052037485,0.0
0.01779270384224699,0.02599999618530228,0.19449397259878787,0.0
0.017763735981432913,0.02592864941700094,0.19514253081590305,0.0
0.017768832179168723,0.025860789520834628,0.1956052119261279,0.0
0.017772587272237215,0.02618801905966032,0.19605904174554845,0.0
0.017733158795018054,0.02615368678017697,0.19642248111039173,0.0
0.01776051733023135,0.02623361661834915,0.19569935747377365,0.0
0.017750861376626657,0.026253733188358927,0.19611161304850733,0.0
0.01775193426036051,0.026202771211000824,0.19591554354614538,0.0
0.01781818483092604,0.026211354280871662,0.19542067592390489,0.0
0.01784661624987319,0.026143226163771887,0.19456156427402072,0.0
0.017772050830370287,0.026093337070147642,0.19713514413060476,0.0
0.017732354132217663,0.026212963606472444,0.19886865602358056,0.0
0.01771491977154252,0.02614054395443725,0.19630634144620196,0.0
0.017771246167569896,0.026068660744268984,0.19361045284395847,0.0
0.017696144306200062,0.026027086499582113,0.19542335813323952,0.0
0.017626406863499505,0.026043179755589934,0.19668989738105505,0.0
0.017520727815714815,0.025848987799762226,0.19515808763004394,0.0
0.017394395756053418,0.025986585138629097,0.1948702865684374,0.0
0.0173332413832237,0.025997582196901108,0.1959603364420338,0.0
0.017632844165902634,0.026021185639045912,0.1964034374241158,0.0
0.01777956101650727,0.02594045113807334,0.19406937886111483,0.0
0.017619164898295986,0.02608368111654295,0.19367428942612283,0.0
0.017642231898573862,0.026148322361507697,0.1941656701762283,0.0
0.0177135786668752,0.025990072010764125,0.19349753183097027,0.0
0.017823549249595314,0.025844696264826807,0.19255312592424464,0.0
0.017776074144372243,0.02588358830017904,0.1939248077779779,0.0
0.017750861376626657,0.025880906090844404,0.1956923837295036,0.0
0.017860563738413302,0.02600509238303809,0.19449987345932407,0.0
0.017835082749734252,0.025978270289691723,0.19293614541723078,0.0
0.01778546187704347,0.025913629044726973,0.19349324029603485,0.0
0.017713846887808665,0.025744113414777926,0.19412972857114416,0.0
0.01775703045809632,0.02576771685692273,0.1946052842861753,0.0
0.0177106282366071,0.025915238370327755,0.19515352787417506,0.0
0.017746569841691238,0.025749746054380664,0.19456290537868803,0.0
0.017759980888364422,0.02581358263654502,0.19386553095168244,0.0
0.017717065539010233,0.025863739951102728,0.1947131091014277,0.0
0.017753007144094366,0.025978270289691723,0.19498749911636104,0.0
0.017742546527689283,0.025849524241629153,0.19453635150627513,0.0
0.017766686411701014,0.02582243392734932,0.19446366363330647,0.0
0.01776051733023135,0.025919798126196637,0.1948305898702848,0.0
0.01778814408637811,0.025781127903595914,0.19447144204037692,0.0
0.017791362737579672,0.025744113414777926,0.1945476167854806,0.0
0.017759444446497494,0.025861325962701555,0.194596432995371,0.0
0.017745765178890847,0.025828603008818986,0.1945808761812301,0.0
0.01779914114465012,0.025923821440198593,0.19468172725221244,0.0
0.01782462213332917,0.025969418998887422,0.19451623493626535,0.0
0.017855735761610956,0.02608663154681105,0.1944907539475863,0.0
0.01777956101650727,0.026032987360118314,0.19475924310198345,0.0
0.017733158795018054,0.025976124522224014,0.19468977388021635,0.0
0.017706336701671682,0.025929722300734794,0.1945771210881616,0.0
0.01768514724792805,0.0257945389502691,0.1945425205877448,0.0
0.01771545621340945,0.025931331626335576,0.194418870737418,0.0
0.01771545621340945,0.025892439590983342,0.1946267419608524,0.0
0.017717065539010233,0.025884661183912895,0.1948904031384472,0.0
0.017751666039427048,0.025998923301568427,0.19468896921741596,0.0
0.017814966179724476,0.026179435989789484,0.19436844520192684,0.0
0.01773932787648772,0.026190433048061495,0.19441538386528298,0.0
0.01766610356165213,0.026134911314834513,0.19506260097773087,0.0
0.017649473863777382,0.02585596154403228,0.1946916514267506,0.0
0.0176958760852666,0.02577790925239435,0.19475495156704803,0.0
0.017684610806061124,0.02585086534629647,0.19453608328534167,0.0
0.017659129817382074,0.025843623381092952,0.19431641034083488,0.0
0.017634453491503416,0.025898340451519543,0.19455915028561954,0.0
0.017533870641454535,0.02593669604500485,0.19452159935493463,0.0
0.017547818129994647,0.025993022441032226,0.19456156427402072,0.0
0.01762372465416487,0.025965395684885467,0.19448619419171742,0.0
0.017592074584016154,0.02585006068349608,0.19442423515608728,0.0
0.017619164898295986,0.02614188505910457,0.19457631642536122,0.0
0.017603876305088556,0.026335004131198422,0.19403209615136338,0.0
0.017456623012616992,0.026247564106889262,0.19416620661809522,0.0
0.01753869861825688,0.025726679054102787,0.1951406532693688,0.0
0.017710360015673637,0.02573553034490709,0.19430568150349634,0.0
0.01769024344566386,0.02602601361584826,0.19392132090584288,0.0
0.017670126875654085,0.02597290587102245,0.19408761788459036,0.0
0.01758080930481068,0.02583772252055675,0.19397818374373718,0.0
0.01762962551470107,0.025966736789552785,0.19475200113677993,0.0
0.01762828441003375,0.026035401348519487,0.19474154052037485,0.0
0.017654570061513192,0.02588358830017904,0.19456156427402072,0.0
0.017633112386836097,0.025813046194678092,0.19429280689869008,0.0
0.017574640223341015,0.0258514017881634,0.1940852038961892,0.0
0.017557742304532803,0.025908532846991163,0.19449397259878787,0.0
0.017612459374959394,0.025894317137517588,0.19454359347147865,0.0
0.01767334552685565,0.025902900207388425,0.1941530637923555,0.0
0.01761433692149364,0.025843623381092952,0.1944293313538231,0.0
0.01758966059561498,0.025996777534100717,0.19447868400558044,0.0
0.01755532831613163,0.025931868068202503,0.19428288272415192,0.0
0.017554791874264702,0.025929990521668257,0.19438963465567047,0.0
0.01753789395545649,0.02578085968266245,0.19440036349300902,0.0
0.017526628676251016,0.025736871449574407,0.1943354540271108,0.0
0.017575444886141406,0.02592435788206552,0.1944352322143593,0.0
0.01760709495629012,0.025890562044449096,0.19433572224804427,0.0
0.017595025014284255,0.025834503869355187,0.19427322677054723,0.0
0.017588319490947663,0.025950107091678033,0.19440143637674287,0.0
0.017586978386280344,0.025889757381648705,0.19444086485396203,0.0
0.017566593595337104,0.02574867317064681,0.1942512326540032,0.0
0.017555864757998557,0.025854888660298427,0.19437917403926538,0.0
0.017596634339885037,0.025914701928460827,0.19443415933062544,0.0
0.01758966059561498,0.025800708031738763,0.19427322677054723,0.0
0.01759824366548582,0.025885465846713286,0.1943982177255413,0.0
0.01756417960693593,0.025888148056047923,0.19440224103954326,0.0
0.017576785990808724,0.02587420056750781,0.1943982177255413,0.0
0.017582686851344925,0.025967273231419712,0.1944491797028994,0.0
0.017527969780918334,0.025880369648977476,0.19439848594647477,0.0
0.0175459405834604,0.02588787983511446,0.1943797104811323,0.0
0.017591538142149227,0.025858911974300382,0.19434779219005013,0.0
0.017545404141593474,0.025727483716903178,0.19422414233972338,0.0
0.017521264257581742,0.025708440030627257,0.19411202598953556,0.0
0.017561765618534758,0.025855425102165354,0.1941302650130111,0.0
0.017588319490947663,0.02589968155618686,0.19455754096001876,0.0
0.017558546967333194,0.025851133567229935,0.1944411330748955,0.0
0.01752180069944867,0.02576342532198731,0.19441484742341605,0.0
0.01755157322306314,0.025843086939226025,0.19449504548252172,0.0
0.017539771501990736,0.025789979194400216,0.19443013601662348,0.0
0.01750302523410621,0.025783273671063624,0.19443979197022818,0.0
0.017546208804393865,0.025830748776286695,0.19446580940077418,0.0
0.017585637281613026,0.02589378069565066,0.19436898164379376,0.0
0.01754138082759152,0.02576262065918692,0.194215827490786,0.0
0.017516972722646323,0.025828603008818986,0.19437327317872918,0.0
0.01751965493198096,0.025873664125640884,0.19439446263247281,0.0
0.017515095176112078,0.02587849210244323,0.19430165818949438,0.0
0.0174979290363704,0.025814655520278874,0.19429548910802472,0.0
0.017507048548108164,0.025830212334419768,0.1941766672345003,0.0
0.01749953836197118,0.025755646914916865,0.19426222971227522,0.0
0.017518313827313642,0.025882247195511722,0.19444220595862935,0.0
0.017511340083043586,0.02584067295082485,0.19435664348085444,0.0
0.017450990373014254,0.025820019938948148,0.1943384044573789,0.0
0.017475130257025986,0.025841477613625242,0.19434108666671354,0.0
0.01748720019903185,0.025806608892274964,0.19430836371283097,0.0
0.01750463455970699,0.02584496448576027,0.19432901672470768,0.0
0.017513217629577832,0.025820556380815075,0.19431453279430064,0.0
0.017501147687571963,0.02578085968266245,0.19429897598015974,0.0
0.017541112606658055,0.025820556380815075,0.19427456787521455,0.0
0.017467620070889003,0.025815460183079265,0.19406803775644751,0.0
0.017416926314464367,0.025736871449574407,0.19429951242202667,0.0
0.017434360675139506,0.025739821879842507,0.19447251492411077,0.0
0.01749578326890269,0.02584415982295988,0.19439794950460784,0.0
0.01748559087343107,0.025811168648143847,0.19436629943445913,0.0
0.01748854130369917,0.025844696264826807,0.19433304003870963,0.0
0.01749149173396727,0.025810363985343455,0.19430138996856092,0.0
0.017482908664096432,0.025815996624946193,0.19431345991056678,0.0
0.017492028175834198,0.025852474671897253,0.19442101650488572,0.0
0.01749658793170308,0.02583262632282094,0.19446741872637496,0.0
0.017501147687571963,0.025848719578828762,0.1945084565291949,0.0
0.01748773664089878,0.02574143120544329,0.1943000488638936,0.0
0.017497660815436935,0.025862935288302337,0.19399615454627925,0.0
0.017487468419965315,0.025811973310944238,0.19420643975811477,0.0
0.017481031117562187,0.02571219512369575,0.1946621471240696,0.0
0.017528774443718725,0.025867763265104683,0.19447922044744737,0.0
0.017508389652775482,0.025753501147449155,0.19450657898266066,0.0
0.017477812466360623,0.025682959041948207,0.19451623493626535,0.0
0.017490150629299952,0.02578810164786597,0.1944878035173182,0.0
0.01749363750143498,0.025827261904151667,0.194481902656782,0.0
0.017509998978376268,0.025791588520000998,0.19447171026131038,0.0
0.017489077745566097,0.025806072450408037,0.19450148278492485,0.0
0.017459573442885092,0.0257583291242515,0.19444381528423013,0.0
0.017488004861832242,0.025844696264826807,0.1944945090406548,0.0
0.017483176885029896,0.02586534927670351,0.19438024692299924,0.0
0.017448039942746154,0.025806608892274964,0.1944100194466137,0.0
0.017391177104851854,0.02583906362522407,0.1944159203071499,0.0
0.017433556012339115,0.025850328904429544,0.1943724685159288,0.0
0.017438115768207998,0.025811168648143847,0.19474610027624373,0.0
0.017452599698615037,0.025809022880676137,0.1945521765413495,0.0
0.01745501368701621,0.025799903368938372,0.19447063737757653,0.0
0.017461987431286265,0.02589297603285027,0.19448753529638474,0.0
0.017436506442607216,0.02591845702152932,0.1944336228887585,0.0
0.017456354791683528,0.025854888660298427,0.19439338974873896,0.0
0.017470034059290176,0.025854620439364963,0.19454949433201485,0.0
0.017467083629022075,0.025953862184746525,0.1945350104016078,0.0
0.017434360675139506,0.025921943893664347,0.1944738560287781,0.0
0.017442139082209953,0.025893512474717197,0.19450014168025753,0.0
0.017460378105685483,0.025864276392969655,0.1944470339354317,0.0
0.01746601074528822,0.02589002560258217,0.19439955883020862,0.0
0.017452599698615037,0.02582457969481703,0.19440626435354522,0.0
0.017486931978098388,0.02589163492818295,0.19408198524498763,0.0
0.017514826955178614,0.02593884181247256,0.19433438114337695,0.0
0.01746815651275593,0.0259112150563258,0.19483166275401864,0.0
0.01751455873424515,0.02594554733580915,0.19468762811274865,0.0
0.017473520931425204,0.02584576914856066,0.19453018242480546,0.0
0.01748639553623146,0.025789979194400216,0.19436978630659416,0.0
0.01746010988475202,0.025896999346852224,0.19447331958691116,0.0
0.01746949761742325,0.025919529905263174,0.19451757604093267,0.0
0.017501147687571963,0.02598175716182675,0.19452079469213424,0.0
0.017481031117562187,0.02589163492818295,0.19439553551620667,0.0
0.017467620070889003,0.025931331626335576,0.19426518014254332,0.0
0.017430605582071015,0.025837454299623287,0.1942246787815903,0.0
0.01748210400129604,0.02590772818419077,0.19428046873575075,0.0
0.017491223513033807,0.02588492940484636,0.19465490515886608,0.0
0.017457695896350846,0.025864276392969655,0.1944958501453221,0.0
0.017464937861554366,0.025930526963535185,0.19444354706329667,0.0
0.017446698838078836,0.025849524241629153,0.19426866701467835,0.0
0.01747754424542716,0.02589163492818295,0.19446956449384267,0.0
0.017497124373570008,0.025909605730725017,0.1944958501453221,0.0
0.017468692954622857,0.0258514017881634,0.1945151620525315,0.0
0.01745072215208079,0.02584630559042759,0.19458329016963127,0.0
0.01745930522195163,0.02588492940484636,0.19457309777415965,0.0
0.017482372222229505,0.02591631125406161,0.19447707467997966,0.0
0.017494978606102298,0.025837454299623287,0.1944424741795628,0.0
0.01743087380300448,0.025905045974856135,0.19445642166810292,0.0
0.017488809524632633,0.025978270289691723,0.1944529347959679,0.0
0.017508657873708946,0.025947156661409933,0.19448592597078396,0.0
0.017490150629299952,0.025934818498470603,0.19441806607461762,0.0
0.017474862036092522,0.02599409532476608,0.19419490625797584,0.0
0.017480226454761796,0.02594903420794418,0.19439499907433974,0.0
0.017475130257025986,0.025843355160159488,0.19465356405419876,0.0
0.017470570501157103,0.025951716417278815,0.19454305702961172,0.0
0.017461987431286265,0.02594983887074457,0.19445186191223404,0.0
0.01747030228022364,0.025981220719959824,0.19447036915664306,0.0
0.017462792094086656,0.02596700501048625,0.19444837504009901,0.0
0.01745206325674811,0.025885197625779822,0.19440089993487594,0.0
0.01745367258234889,0.025926771870466693,0.19431641034083488,0.0
0.01747030228022364,0.026018503429711275,0.19442208938861957,0.0
0.017463596756887047,0.02598014783622597,0.19434779219005013,0.0
0.017444553070611126,0.025957349056881556,0.19441806607461762,0.0
0.017445894175278445,0.02588948916071524,0.19441189699314795,0.0
0.017378302500045597,0.025874468788441275,0.19450899297106183,0.0
0.01745420902421582,0.026028159383315968,0.1945218675758681,0.0
0.01746091454755241,0.025969687219820885,0.1943679087600599,0.0
0.017456891233550455,0.025908801067924626,0.19442825847008924,0.0
0.017439188651941852,0.025837186078689824,0.194444888167964,0.0
0.01747459381515906,0.025942060463674123,0.1943960719580736,0.0
0.01741934030286554,0.025880369648977476,0.1943590574692556,0.0
0.017420949628466322,0.025879564986177085,0.194426380923555,0.0
0.017422022512200177,0.02590102266085418,0.19442208938861957,0.0
0.017472716268624813,0.025928381196067475,0.19444864326103248,0.0
0.017483713326896824,0.025883051858312113,0.19436629943445913,0.0
0.017439188651941852,0.025849792462562617,0.1942659848053437,0.0
0.017402442384057328,0.025937232486871777,0.1943826609114004,0.0
0.017419072081932076,0.025984171150227924,0.19435449771338673,0.0
0.0173989555119223,0.025949302428877642,0.19401975798842405,0.0
0.017389299558317608,0.02584925602069569,0.1942979030964259,0.0
0.017397614407254982,0.025872859462840493,0.19473134812490323,0.0
0.017386349128049507,0.025769594403456976,0.19444730215636516,0.0
0.01741638987259744,0.025868031486038147,0.19435637525992097,0.0
0.017412903000462412,0.02592650364953323,0.1944041185860775,0.0
0.017427118709935987,0.025905850637656526,0.19435932569018907,0.0
0.017442139082209953,0.02591926168432971,0.1943384044573789,0.0
0.017456086570750064,0.025851133567229935,0.1944116287722145,0.0
0.01741853564006515,0.025863471730169264,0.19439124398127125,0.0
0.017416121651663976,0.025959226603415802,0.19433062605030846,0.0
0.017391981767652245,0.02587688277684245,0.1942439906887997,0.0
0.017480226454761796,0.025826993683218204,0.19429870775922628,0.0
0.017424972942468277,0.025835308532155578,0.19436629943445913,0.0
0.01740324704685772,0.0259112150563258,0.19419919779291125,0.0
0.017449381047413472,0.02588358830017904,0.1945092611919953,0.0
0.01742872803553677,0.02583477209028865,0.1944277220282223,0.0
0.017435165337939897,0.02593374561473675,0.19443791442369393,0.0
0.017444553070611126,0.025930526963535185,0.19446393185423994,0.0
0.017421217849399786,0.0259082646260577,0.19432231120137108,0.0
0.017433019570472188,0.025878760323376694,0.1942890518056216,0.0
0.017444553070611126,0.02590692352139038,0.19411658574540444,0.0
0.017424704721534814,0.025904509532989207,0.1944403284120951,0.0
0.017429800919270624,0.025867226823237756,0.19451462561066457,0.0
0.01742524116340174,0.025817605950546975,0.19439955883020862,0.0
0.0174587687800847,0.025795075392136026,0.19438990287660393,0.0
0.017479958233828332,0.025864812834836583,0.19431453279430064,0.0
0.01742229073313364,0.025880369648977476,0.19424935510746896,0.0
0.017432214907671797,0.02584067295082485,0.1943333082596431,0.0
0.017432214907671797,0.02578676054319865,0.19432043365483684,0.0
0.017427118709935987,0.025803122020139936,0.19431641034083488,0.0
0.017416926314464367,0.025810095764409992,0.19431292346869986,0.0
0.017450453931147327,0.025823238590149712,0.19431158236403254,0.0
0.01746440141968744,0.02574733206597949,0.19426330259600907,0.0
0.017488809524632633,0.025768789740656585,0.19424077203759813,0.0
0.01743838398914146,0.025797757601470662,0.19428395560788578,0.0
0.017455550128883137,0.025818142392413902,0.19426839879374488,0.0
0.017461182768485874,0.025755110473049937,0.19417613079263338,0.0
0.017502757013172745,0.02577495882212625,0.19402056265122444,0.0
0.017492564617701125,0.025794270729335635,0.1943459146435159,0.0
0.017453404361415428,0.025763693542920775,0.19452535444800312,0.0
0.017452599698615037,0.025750014275314127,0.19425176909587014,0.0
0.01745796411728431,0.025726410833169323,0.19421046307211673,0.0
0.017464133198753975,0.025786492322265188,0.19421448638611868,0.0
0.01748773664089878,0.025761547775453066,0.1943215065385707,0.0
0.017454477245149282,0.02569341965835329,0.1942920022358897,0.0
0.01745367258234889,0.025751355379981446,0.19429012468935544,0.0
0.017434360675139506,0.025727483716903178,0.19411122132673517,0.0
0.01746735184995554,0.025775495263993177,0.19416888882742986,0.0
0.017427923372736378,0.02572185107730044,0.1944440835051636,0.0
0.01747700780356023,0.0257014662863572,0.19432231120137108,0.0
0.017475666698892913,0.025660964925404182,0.1943051450616294,0.0
0.01747030228022364,0.0256985158560891,0.19428288272415192,0.0
0.017498197257303862,0.025723460402901223,0.19423835804919695,0.0
0.017464669640620902,0.02559444613390519,0.19415145446675472,0.0
0.017488273082765706,0.02563602037859206,0.19425981572387405,0.0
0.017479958233828332,0.025591763924570552,0.19422199657225567,0.0
0.01746949761742325,0.02557862109883083,0.19425150087493667,0.0
0.01746225565221973,0.025530877772674297,0.194215827490786,0.0
0.017505171001573918,0.025670620879008874,0.19425606063080555,0.0
0.017447235279945763,0.02550861543519681,0.19415440489702282,0.0
0.01745501368701621,0.02552900022614005,0.19423111608399343,0.0
0.01746735184995554,0.025587740610568597,0.19425230553773706,0.0
0.017438115768207998,0.025651845413666417,0.1942600839448075,0.0
0.017421754291266713,0.025630655959922786,0.1941729121414318,0.0
0.017470838722090567,0.025740894763576362,0.19417264392049835,0.0
0.017488809524632633,0.025687787018750553,0.194005274058017,0.0
0.017458232338217774,0.0256682068906077,0.19426142504947483,0.0
0.017471375163957494,0.025650772529932562,0.19428878358468812,0.0
0.017490150629299952,0.02563816614605977,0.19424050381666466,0.0
0.017494173943301907,0.025665524681273064,0.19442825847008924,0.0
0.017483176885029896,0.025653722960200662,0.19439580373714013,0.0
0.017493101059568052,0.025707367146893402,0.1943370633527116,0.0
0.017497660815436935,0.025714877333030385,0.19434108666671354,0.0
0.017507316769041627,0.025674912413944293,0.19434832863191706,0.0
0.017491759954900734,0.025622072890051948,0.19434323243418125,0.0
0.01752045959478135,0.025730165926237815,0.19434752396911667,0.0
0.017497660815436935,0.02566874333247463,0.19432928494564114,0.0
0.01746091454755241,0.025658282716069545,0.19442879491195617,0.0
0.017497660815436935,0.025625559762186976,0.19444086485396203,0.0
0.017518045606380178,0.025651040750866026,0.1942802005148173,0.0
0.017497660815436935,0.025669279774341556,0.1941656701762283,0.0
0.017451258593947718,0.025650236088065635,0.19413402010607958,0.0
0.01747405737329213,0.025669816216208483,0.19428690603815388,0.0
0.017497124373570008,0.025568428703359212,0.19459240968136904,0.0
0.01739976017472269,0.025564405389357257,0.19445052080756672,0.0
0.017409684349260848,0.025640848355394406,0.19444435172609706,0.0
0.017465474303421293,0.02567383953021044,0.19445025258663326,0.0
0.017505171001573918,0.02569127389088558,0.19442745380728885,0.0
0.017506512106241236,0.02569771119328871,0.19439070753940432,0.0
0.017484786210630678,0.025657746274202618,0.1943451099807155,0.0
0.017470570501157103,0.0256024927619091,0.1943657629925922,0.0
0.017494173943301907,0.025708440030627257,0.19433357648057656,0.0
0.017468692954622857,0.0256867141350167,0.19409485984979388,0.0
0.017445357733411517,0.025680545053547034,0.19433518580617734,0.0
0.017489614187433025,0.02569476076302061,0.194751464694913,0.0
0.01749229639676766,0.025709244693427648,0.1944945090406548,0.0
0.017435165337939897,0.025599810552574463,0.19439124398127125,0.0
0.017422558954067104,0.025581839750032396,0.19441484742341605,0.0
0.017449649268346936,0.025579425761631223,0.19434028200391315,0.0
0.01745206325674811,0.02557057447082692,0.19438829355100315,0.0
0.017436506442607216,0.0256926149955529,0.1945025556686587,0.0
0.017444284849677662,0.025686982355950162,0.1943915122022047,0.0
0.017469765838356712,0.025659087378869936,0.19433116249217539,0.0
0.017394932197920345,0.025519880714402286,0.1942785911892165,0.0
0.01742229073313364,0.025735262123973625,0.19441645674901684,0.0
0.017412634779528948,0.025687250576883626,0.19439204864407164,0.0
0.01738876311645068,0.02569771119328871,0.19435637525992097,0.0
0.01739976017472269,0.025606784296844518,0.1943198972129699,0.0
0.017437311105407607,0.025631997064590104,0.19434779219005013,0.0
0.017438652210074925,0.025664183576605746,0.19438239269046695,0.0
0.017487468419965315,0.025684300146615525,0.19438239269046695,0.0
0.01748424976876375,0.025706830705026475,0.19437783293459807,0.0
0.01744187086127649,0.025678131065145857,0.19432177475950416,0.0
0.017427923372736378,0.02569985696075642,0.1943051450616294,0.0
0.01742577760526867,0.02570870825156072,0.19431828788736913,0.0
0.017413707663262803,0.02571675487956463,0.19431453279430064,0.0
0.01741638987259744,0.02568912812341787,0.19402807283736143,0.0
0.017394395756053418,0.025710317577161503,0.1942831509450854,0.0
0.017383935139648334,0.02570656248409301,0.1942431860259993,0.0
0.0173930546513861,0.025644603448462897,0.19425391486333785,0.0
0.017412903000462412,0.025595787238572507,0.19458784992550016,0.0
0.01741853564006515,0.025585326622167424,0.19434028200391315,0.0
0.017379107162845988,0.025561991400956083,0.19434162310858047,0.0
0.017421754291266713,0.025579693982564686,0.19434108666671354,0.0
0.01746815651275593,0.025545898144948263,0.19438185624860002,0.0
0.01743033736113755,0.025533559982008933,0.19440760545821253,0.0
0.01743328779140565,0.025556358761353346,0.19421126773491712,0.0
0.01745796411728431,0.02553409642387586,0.19414367605968427,0.0
0.017472716268624813,0.025607857180578373,0.19432794384097382,0.0
0.017418803860998613,0.02557057447082692,0.19425015977026935,0.0
0.017434897117006434,0.02565855093700301,0.19427000811934567,0.0
0.017421217849399786,0.025612148715513792,0.19409083653579193,0.0
0.017432751349538724,0.025589081715235915,0.1941139035360698,0.0
0.017443748407810735,0.025614026262048038,0.19450765186639452,0.0
0.017449649268346936,0.025612148715513792,0.19435744814365483,0.0
0.01743087380300448,0.025625291541253512,0.1942276292118584,0.0
0.01739976017472269,0.025599274110707535,0.19426920345654528,0.0
0.017396541523521127,0.02564835854153139,0.194245331793467,0.0
0.017388226674583753,0.025567087598691893,0.19413804342008154,0.0
0.01740619747712582,0.025552603668284855,0.1942284338746588,0.0
0.01740029661658962,0.02552604979587195,0.1942305796421265,0.0
0.01740914790739392,0.025544825261214408,0.19418820073463924,0.0
0.01740029661658962,0.02554348415654709,0.1940734021751168,0.0
0.017436238221673752,0.02553543752854318,0.19389128016129495,0.0
0.017450185710213863,0.02543565934129469,0.19407125640764908,0.0
0.01745072215208079,0.02550190991186022,0.19430755905003058,0.0
0.017408075023660066,0.02543351357382698,0.19429280689869008,0.0
0.017440261535675707,0.02554053372627899,0.19416003753662556,0.0
0.017461987431286265,0.02549037641172128,0.1941302650130111,0.0
0.01746815651275593,0.025552067226417927,0.19413589765261383,0.0
0.017420413186599395,0.025455775911304466,0.1940991513847293,0.0
0.01748049467569526,0.02554509348214787,0.19405382204697394,0.0
0.01749229639676766,0.02549332684198938,0.19431426457336717,0.0
0.017455550128883137,0.02541232412008335,0.19429736665455896,0.0
0.017461450989419338,0.025446924620500164,0.19404282498870193,0.0
0.01746091454755241,0.02542680805049039,0.19405221272137316,0.0
0.01749444216423537,0.025417688538752623,0.19407018352391522,0.0
0.017510535420243195,0.02537611429406575,0.19403397369789763,0.0
0.017511071862110122,0.025416347434085305,0.19409271408232617,0.0
0.017493101059568052,0.0254378051087624,0.19409807850099545,0.0
0.017473520931425204,0.025350365084453236,0.19399025368574305,0.0
0.017464937861554366,0.02536458079392681,0.19406616020991327,0.0
0.017488273082765706,0.02551290697013223,0.19408278990778802,0.0
0.01748854130369917,0.02549681371412441,0.19401439356975478,0.0
0.017460646326618947,0.025377991840599995,0.19400581049988394,0.0
0.017475666698892913,0.02536163036365871,0.1940776937100522,0.0
0.017474325594225595,0.02542922203889156,0.1940342419188311,0.0
0.017476739582626768,0.025455507690371002,0.19398488926707377,0.0
0.01746306031502012,0.025431099585425807,0.1939669184645317,0.0
0.01746815651275593,0.025345000665783962,0.19399776387188003,0.0
0.01748720019903185,0.02536592189859413,0.19399400877881154,0.0
0.017476471361693304,0.025408300806081394,0.19400420117428316,0.0
0.01746735184995554,0.025406691480480612,0.19399266767414422,0.0
0.01746601074528822,0.02543056314355888,0.1939883761392088,0.0
0.01748049467569526,0.025446388178633237,0.19396128582492897,0.0
0.01749578326890269,0.025462481434641058,0.19368448182159445,0.0
0.017482372222229505,0.025434586457560835,0.1936442486815749,0.0
0.01748773664089878,0.025465968306776086,0.19389932678929886,0.0
0.017526628676251016,0.025507542551462956,0.19433089427124192,0.0
0.01750168412943889,0.025450679713568656,0.19415735532729092,0.0
0.01748264044316297,0.025411251236349495,0.19396128582492897,0.0
0.017441334419409562,0.0255544812148191,0.19405945468657668,0.0
0.01743543355887336,0.025523367586537313,0.19403477836069802,0.0
0.01744348018687727,0.0254946679466567,0.1939669184645317,0.0
0.017417730977264758,0.02541446988755106,0.19393392728971567,0.0
0.01746010988475202,0.025441828422764354,0.19399025368574305,0.0
0.017513217629577832,0.02540535037581329,0.19400795626735165,0.0
0.017510535420243195,0.02534634177045128,0.19398086595307182,0.0
0.017494173943301907,0.025429490259825025,0.19402646351176064,0.0
0.017490150629299952,0.025430026701691952,0.19400366473241623,0.0
0.017493369280501516,0.025423052957421897,0.19385963009114623,0.0
0.017505707443440845,0.025372359200997258,0.1937874786600445,0.0
0.017531724873986826,0.025406691480480612,0.19422789743279187,0.0
0.017497660815436935,0.025436195783161617,0.19408198524498763,0.0
0.01746601074528822,0.02535733882872329,0.19402324486055908,0.0
0.017467620070889003,0.025345000665783962,0.19408574033805612,0.0
0.017470838722090567,0.02536458079392681,0.19408627677992304,0.0
0.01748424976876375,0.02539810841060977,0.19405543137257472,0.0
0.017489077745566097,0.025394621538474743,0.19402941394202874,0.0
0.017448039942746154,0.025374504968464967,0.19397791552280372,0.0
0.017422558954067104,0.02540642325954715,0.19402914572109528,0.0
0.017408075023660066,0.02540803258514793,0.1940304868257626,0.0
0.01743328779140565,0.025405618596746754,0.1940452389771031,0.0
0.017501147687571963,0.02543270891102659,0.1940355830234984,0.0
0.01752689689718448,0.025466772969576477,0.19400876093015204,0.0
0.017487468419965315,0.025441828422764354,0.19402699995362757,0.0
0.01747325271049174,0.02545309370196983,0.19403451013976455,0.0
0.01747030228022364,0.025420907189954187,0.1940224401977587,0.0
0.017469765838356712,0.025432977131960053,0.1939980320928135,0.0
0.01743677466354068,0.025405618596746754,0.19398354816240646,0.0
0.017415316988863585,0.025430294922625416,0.1940621368959113,0.0
0.017385544465249116,0.025443437748365137,0.19407098818671562,0.0
0.017372133418575932,0.025387379573271224,0.1941442125015512,0.0
0.017422022512200177,0.025376650735932677,0.1940806441403203,0.0
0.017432751349538724,0.025439146213429718,0.19415708710635746,0.0
0.017453940803282355,0.025473210271979605,0.19418203165316958,0.0
0.017473520931425204,0.02551290697013223,0.19424586823533393,0.0
0.017446698838078836,0.025401863503678263,0.19416835238556293,0.0
0.017437042884474143,0.025281700525486533,0.19409217764045925,0.0
0.01746815651275593,0.025288942490690053,0.19420080711851204,0.0
0.017449381047413472,0.02514812650062162,0.19422575166532416,0.0
0.017402442384057328,0.025308254397899438,0.19419088294397388,0.0
0.01734128801122761,0.025391671108206643,0.19419678380451008,0.0
0.017373206302309787,0.025258633525208657,0.1942313843049269,0.0
0.017474325594225595,0.025332126060977705,0.19418900539743963,0.0
0.017439188651941852,0.0252996713280286,0.19421234061865097,0.0
0.017446162396211908,0.02533400360751195,0.19416325618782712,0.0
0.01748129933849565,0.02534982864258631,0.19419946601384472,0.0
0.017467620070889003,0.025363507910192956,0.19427537253801494,0.0
0.017407806802726602,0.02533239428191117,0.1942380898282635,0.0
0.017343970220562246,0.025241199164533518,0.1941699617111637,0.0
0.017389836000184535,0.02530771795603251,0.1942689352356118,0.0
0.017452331477681573,0.025392743991940497,0.194204830432514,0.0
0.017422558954067104,0.02537772361966653,0.19422601988625762,0.0
0.01737562029071096,0.02531281415376832,0.19418176343223612,0.0
0.01732760874362096,0.02534124557271547,0.19418873717650617,0.0
0.017320366778417442,0.025358411712457146,0.19419866135104433,0.0
0.01733109561575599,0.025383892701136196,0.1941412620712831,0.0
0.017299445545607275,0.025306376851365192,0.19407903481471953,0.0
0.017234267858775597,0.025297793781494354,0.19413348366421265,0.0
0.01723373141690867,0.02539944951527709,0.19413375188514612,0.0
0.01722273435863666,0.025382551596468877,0.19412382771060796,0.0
0.01721763816090085,0.02538711135233776,0.1941080026755336,0.0
0.017228098777305932,0.025351706189120554,0.1941206090594064,0.0
0.017232122091307887,0.02541607921315184,0.1941257052571422,0.0
0.01716372575327465,0.025373432084731112,0.19400259184868238,0.0
0.0171411951948637,0.02531120482816754,0.19403665590723226,0.0
0.01712161506672085,0.025375041410331894,0.19408171702405416,0.0
0.017087819229104427,0.0253624350264591,0.1940253906280268,0.0
0.017057242042689567,0.02532729808417536,0.1940106384766863,0.0
0.017005207181597613,0.025295111572159718,0.1939728193250679,0.0
0.016991527913990966,0.025364044352059884,0.19394519256892115,0.0
