-0.05239535002653003,-0.028333250085502873,0.16230343726914373,0.0
-0.052380597875189526,-0.028315815724827734,0.16226776388499306,0.0
-0.05237845210772182,-0.028269413503338517,0.16227500585019658,0.0
-0.05246052771336171,-0.028238836316923657,0.16228653935033552,0.0
-0.05257371694728338,-0.028232935456387456,0.16228037026886585,0.0
-0.05265096457612092,-0.02823749521225634,0.16226642278032574,0.0
-0.05263406665731271,-0.028205040479307233,0.16227446940832965,0.0
-0.052651769238921314,-0.028182509920896284,0.16229887751327485,0.0
-0.05269495280920897,-0.028165075560221145,0.16233508733929244,0.0
-0.05269307526267472,-0.028151664513547957,0.16235037593249987,0.0
-0.05266893537866299,-0.028187874339565558,0.1623761251421124,0.0
-0.05267054470426377,-0.028191092990767122,0.16237692980491278,0.0
-0.05269280704174126,-0.02816105224621919,0.16235922722330418,0.0
-0.052673763355465336,-0.028143349664610583,0.1623428657463629,0.0
-0.052646673041185504,-0.028162929792753436,0.1623214080716858,0.0
-0.05266115697159254,-0.02816105224621919,0.16230933812967993,0.0
-0.0526858332974712,-0.02813664414127399,0.16229726818767407,0.0
-0.05269978078601131,-0.028119478001532316,0.1622948541992729,0.0
-0.05269307526267472,-0.02809131480351863,0.16231228855994803,0.0
-0.0526887837277393,-0.02806368804737187,0.16231872586235116,0.0
-0.05268797906493891,-0.02802425957015271,0.16230397371101066,0.0
-0.05265096457612092,-0.027993414162804386,0.16230477837381105,0.0
-0.05262065561063953,-0.02798429465106662,0.1623361602230263,0.0
-0.052614754750103326,-0.027938697092377795,0.16234903482783256,0.0
-0.05261582763383718,-0.027931455127174275,0.16235252169996758,0.0
-0.052589810203291204,-0.027946743720381705,0.16233884243236094,0.0
-0.05255601436567478,-0.027940306417978577,0.1623471572812983,0.0
-0.05253697067939886,-0.027894977080223215,0.16233776954862708,0.0
-0.05255601436567478,-0.027863327010074497,0.16231148389714764,0.0
-0.05257934958688612,-0.027849915963401313,0.16231014279248032,0.0
-0.05257425338915031,-0.027856621486737905,0.16232248095541965,0.0
-0.052578276703152266,-0.027882638917283886,0.16231497076928267,0.0
-0.052598661494095506,-0.02786574099847567,0.16233213690902434,0.0
-0.05259839327316204,-0.02786359523100796,0.1623243585019539,0.0
-0.05256888897048104,-0.027852329951802486,0.16235708145583647,0.0
-0.0525299969351288,-0.027862522347274106,0.16237424759557814,0.0
-0.052536702458465395,-0.027875396952080363,0.16235574035116915,0.0
-0.05259222419169238,-0.02787003253341109,0.16231336144368189,0.0
-0.0525603059006102,-0.027849111300600922,0.16229431775740596,0.0
-0.05251685410938908,-0.027870300754344553,0.16230102328074256,0.0
-0.052526510062993775,-0.02790999745249718,0.16232972292062317,0.0
-0.05254153043526774,-0.02792153095263612,0.16237478403744507,0.0
-0.0525691571914145,-0.027914020766499136,0.16238685397945093,0.0
-0.05258873731955735,-0.027924749603837683,0.1623959734911887,0.0
-0.05261073143610137,-0.027945134394780923,0.16239248661905367,0.0
-0.05264935525052014,-0.02791563009209992,0.16238873152598518,0.0
-0.05264613659931858,-0.02792233561543651,0.1623664691885077,0.0
-0.05260322124996439,-0.027938160650510867,0.1623981192586564,0.0
-0.052590614866091595,-0.027934941999309303,0.16239275483998714,0.0
-0.052630579785177684,-0.02792877291783964,0.16237666158397931,0.0
-0.05262682469210919,-0.027895513522090142,0.16239409594465445,0.0
-0.05262977512237729,-0.027931455127174275,0.1623951688283883,0.0
-0.05261287720356908,-0.027908119905962935,0.1623900726306525,0.0
-0.05259705216849472,-0.02785259817273595,0.1624040201191926,0.0
-0.05262146027343992,-0.02785849903327215,0.16238256244451552,0.0
-0.052596515726627796,-0.027845892649399358,0.1623420610835625,0.0
-0.05257720381941841,-0.02784455154473204,0.16233723310676015,0.0
-0.052621996715306846,-0.027820948102587235,0.1623605683279715,0.0
-0.05265606077385673,-0.027805659509379806,0.162367810293175,0.0
-0.05265606077385673,-0.027826044300323045,0.16234098819982865,0.0
-0.052630579785177684,-0.027791175578972767,0.16232918647875624,0.0
-0.05263701708758081,-0.027762475939092153,0.1623428657463629,0.0
-0.05264425905278433,-0.02772868010147573,0.1623560085721026,0.0
-0.05263406665731271,-0.027702126229062825,0.1623442068510302,0.0
-0.052606708122099416,-0.027678791007851485,0.16233508733929244,0.0
-0.05260697634303288,-0.0276683303914464,0.16235842256050378,0.0
-0.052659815866925225,-0.027635070995696905,0.16238256244451552,0.0
-0.05266974004146338,-0.02763909430969886,0.16238578109571708,0.0
-0.05259758861036165,-0.027654114681972826,0.16239248661905367,0.0
-0.052583372900888076,-0.027678791007851485,0.1624018743517249,0.0
-0.05261207254076869,-0.027677449903184166,0.1624026790145253,0.0
-0.05260778100583327,-0.027694079601058914,0.16238175778171512,0.0
-0.052576130935684556,-0.027699175798794724,0.1623879268631848,0.0
-0.05257693559848495,-0.02766752572864601,0.1624284282241378,0.0
-0.052639431075981985,-0.02765518756570668,0.1624469354685468,0.0
-0.05271641048388606,-0.027686032973055004,0.1624241366892024,0.0
-0.05267778666946729,-0.02765009136797087,0.1624115303053296,0.0
-0.05263084800611115,-0.027680936775319194,0.16241340785186384,0.0
-0.05265659721572366,-0.027727070775874947,0.16240214257265836,0.0
-0.05270675453028137,-0.02773163053174383,0.16245229988721607,0.0
-0.05265579255292327,-0.027675840577583384,0.16243969350334328,0.0
-0.052608049226766734,-0.027696493589460087,0.1624549820965507,0.0
-0.052645331936518186,-0.02769595714759316,0.16247912198056244,0.0
-0.052694148146408576,-0.02768361898465383,0.1624520316662826,0.0
-0.052673763355465336,-0.02769300671732506,0.162415821840265,0.0
-0.052623337819974164,-0.027695420705726233,0.1624085798750615,0.0
-0.052568084307680646,-0.027738604276013885,0.1623702242815762,0.0
-0.052557087249408635,-0.027756843299489416,0.16236110476983842,0.0
-0.05254206687713467,-0.02778929803243852,0.16241045742159574,0.0
-0.052499419748713944,-0.027792516683640085,0.1624402299452102,0.0
-0.052503979504582826,-0.02778044674163422,0.16244076638707713,0.0
-0.05251014858605249,-0.02774852845055204,0.1624187722705331,0.0
-0.052546894853937015,-0.027764085264692935,0.1623981192586564,0.0
-0.052529460493261876,-0.027790102695238912,0.16242494135200278,0.0
-0.05250719815578439,-0.027796271776708577,0.16242520957293624,0.0
-0.0525514546098059,-0.027780178520700756,0.16239865570052334,0.0
-0.0525750580519507,-0.02778929803243852,0.16237666158397931,0.0
-0.0525270465048607,-0.027765426369360253,0.16238175778171512,0.0
-0.05251470834192137,-0.0278241667537888,0.1623900726306525,0.0
-0.052528655830461485,-0.02783435914926042,0.16241635828213194,0.0
-0.05257774026128534,-0.027820143439786844,0.1624536409918834,0.0
-0.05258203179622076,-0.027806195951246733,0.16246651559668965,0.0
-0.05257908136595266,-0.027821752765387626,0.16245685964308496,0.0
-0.052602416587164,-0.027826044300323045,0.16244747191041373,0.0
-0.05265230568078824,-0.027777764532299583,0.1624831452945644,0.0
-0.05267027648333031,-0.027828994730591146,0.1624785855386955,0.0
-0.05261797340130489,-0.027841869335397403,0.16246705203855658,0.0
-0.052643722610917404,-0.027888271556886623,0.1624477401313472,0.0
-0.052686101518404665,-0.027914825429299527,0.16245229988721607,0.0
-0.0526622298553264,-0.027909729231563717,0.16249146014350177,0.0
-0.052615291191970254,-0.02798214888359891,0.1624764397712278,0.0
-0.0526083174477002,-0.028009507418812207,0.16246436982922194,0.0
-0.052667057832128744,-0.028048131233230977,0.16245310455001646,0.0
-0.05266625316932835,-0.028078440198712373,0.16244452148014563,0.0
-0.05260858566863366,-0.02808997369885131,0.16242762356133741,0.0
-0.052603757691831315,-0.02808997369885131,0.162434329084674,0.0
-0.052648818808653214,-0.02810874916419377,0.16244291215454484,0.0
-0.05267134936706416,-0.028130475059804327,0.16246436982922194,0.0
-0.052608049226766734,-0.02813369371100589,0.16247456222469356,0.0
-0.0526112678779683,-0.02817553617662623,0.16249843388777183,0.0
-0.05266625316932835,-0.028192970537301368,0.1625126495972454,0.0
-0.05268556507653774,-0.028202894711839524,0.16253062039978747,0.0
-0.052615291191970254,-0.028199944281571424,0.16250862628324345,0.0
-0.052586323331156176,-0.028197262072236787,0.1625164046903139,0.0
-0.052625483587441874,-0.02816990353702349,0.1625206962252493,0.0
-0.05267188580893109,-0.028152737397281816,0.1625134542600458,0.0
-0.05262736113397612,-0.02812859751327008,0.16252471953925127,0.0
-0.052605903459299025,-0.028149518746080248,0.16256012470246847,0.0
-0.05263594420384696,-0.028167757769555782,0.1625644162374039,0.0
-0.052648818808653214,-0.028157028932217235,0.162548859423263,0.0
-0.05267188580893109,-0.0281690988742231,0.16254483610926104,0.0
-0.05265954764599176,-0.028183851025563603,0.16255744249313384,0.0
-0.05267966421600154,-0.028147104757679075,0.16257702262127668,0.0
-0.052715874042019134,-0.028125378862068517,0.16256307513273657,0.0
-0.052714532937351816,-0.028204504037440306,0.16258399636554674,0.0
-0.05267564090199958,-0.028220597293448127,0.16255744249313384,0.0
-0.05272123846068841,-0.028266999514937344,0.16250648051577574,0.0
-0.052745914786567066,-0.028238031654123266,0.162537862364991,0.0
-0.05275074276336941,-0.02826029399160075,0.16255234629539803,0.0
-0.052697635018543604,-0.028285238538412874,0.16254537255112797,0.0
-0.052700585448811704,-0.028323325910964717,0.16251828223684814,0.0
-0.05274537834470014,-0.028347465794976448,0.1625105038297777,0.0
-0.05274162325163165,-0.028314474620160415,0.16248046308522976,0.0
-0.05270460876281366,-0.0283367369576379,0.16246490627108887,0.0
-0.05271050962334986,-0.028343442480974493,0.16248931437603406,0.0
-0.052773541542713825,-0.028305623329356114,0.16250353008550764,0.0
-0.05280465517099561,-0.028281751666277846,0.162519355120582,0.0
-0.05277702841484885,-0.02830964664335807,0.16254644543486182,0.0
-0.05273599061202891,-0.028305623329356114,0.1625370577021906,0.0
-0.05275557074017176,-0.028312060631759242,0.1625265970857855,0.0
-0.05276737246124416,-0.02831688860856159,0.16253276616725518,0.0
-0.05271641048388606,-0.02831849793416237,0.16253062039978747,0.0
-0.05268985661147316,-0.028318229713228907,0.16256119758620233,0.0
-0.05273947748416394,-0.02831179241082578,0.16259338409821797,0.0
-0.05278051528698388,-0.02830455044562226,0.16259821207502032,0.0
-0.0527426961353655,-0.028300795352553768,0.16259418876101836,0.0
-0.052681005320668856,-0.028321716585363935,0.1625909701098168,0.0
-0.052697635018543604,-0.028316083945761197,0.1625791683887444,0.0
-0.052726066437490754,-0.028249565154262204,0.16257219464447434,0.0
-0.05273008975149271,-0.028220597293448127,0.16257729084221015,0.0
-0.05267832311133422,-0.028219792630647736,0.1625614658071358,0.0
-0.052682346425336174,-0.028223279502782764,0.16255610138846652,0.0
-0.05275583896110522,-0.02822730281678472,0.16254537255112797,0.0
-0.052756107182038686,-0.02823964097972405,0.16257434041194205,0.0
-0.052675909122933046,-0.02818438746743053,0.16264354141277568,0.0
-0.05266625316932835,-0.028214159991045,0.1626427367499753,0.0
-0.05273652705389584,-0.02823534944478863,0.16263120324983635,0.0
-0.05274323257723243,-0.028250369817062596,0.1626381769941064,0.0
-0.052708632076815615,-0.02828336099187863,0.1626419320871749,0.0
-0.05270165833254556,-0.028297576701352203,0.16262610705210054,0.0
-0.05273464950736159,-0.02831420639922695,0.16261135490076004,0.0
-0.052745914786567066,-0.028304818666555723,0.16261269600542735,0.0
-0.05269522103014243,-0.02830455044562226,0.16264541895930992,0.0
-0.05263245733171193,-0.02831474284109388,0.16266499908745277,0.0
-0.05263272555264539,-0.028288993631481366,0.16267331393639015,0.0
-0.052657670099457515,-0.02827772835227589,0.16265105159891266,0.0
-0.052632189110778466,-0.028293285166416784,0.16266017111065043,0.0
-0.05263272555264539,-0.02836141328351656,0.16265480669198115,0.0
-0.05266330273906025,-0.02837321500458896,0.16266499908745277,0.0
-0.052653378564522096,-0.028317425050428516,0.1626352265638383,0.0
-0.05261850984317182,-0.02834317426004103,0.16263093502890288,0.0
-0.05257291228448299,-0.02836945991152047,0.16263764055223948,0.0
-0.052560842342477126,-0.028369728132453934,0.16264139564530797,0.0
-0.05258069069155344,-0.02838555316752829,0.16265936644785003,0.0
-0.05259007842422467,-0.028405669737538067,0.16268887075053104,0.0
-0.05251873165592333,-0.028420690109812033,0.16270281823907115,0.0
-0.05252329141179221,-0.028427127412215165,0.16271810683227858,0.0
-0.05257371694728338,-0.028431687168084047,0.16272642168121595,0.0
-0.05257908136595266,-0.028425786307547843,0.1627156928438774,0.0
-0.05255816013314249,-0.02842337231914667,0.16269986780880305,0.0
-0.05252597362112685,-0.02842256765634628,0.1626655355293197,0.0
-0.05256379277274523,-0.02841827612141086,0.16267411859919054,0.0
-0.052596515726627796,-0.028399500656068402,0.16272883566961713,0.0
-0.052574521610083774,-0.028439733796087958,0.1627535119954958,0.0
-0.05258283645902115,-0.02840513329567114,0.16273312720455255,0.0
-0.052637285308514276,-0.028398427772334547,0.16268860252959758,0.0
-0.05266947182052992,-0.02842042188887857,0.1626861885411964,0.0
-0.052640235738782376,-0.028426590970348234,0.16271703394854473,0.0
-0.052611804319835226,-0.02843034606341673,0.16275431665829618,0.0
-0.05264211328531662,-0.028412643481808122,0.16280018243791847,0.0
-0.05266893537866299,-0.02841183881900773,0.1628176167985936,0.0
-0.052664912064661035,-0.028445366435690695,0.1628302231824664,0.0
-0.05263674886664735,-0.02844858508689226,0.1628264680893979,0.0
-0.05268180998346925,-0.028437856249553712,0.16281412992645858,0.0
-0.052748060554034776,-0.028415862133009687,0.16277470144923942,0.0
-0.05273008975149271,-0.028371069237121252,0.16274063739068953,0.0
-0.05267269047173148,-0.028372678562722034,0.16274948868149383,0.0
-0.05268207820440271,-0.02837536077205667,0.1627607539606993,0.0
-0.05270970496054947,-0.028391722248997955,0.1627682641468363,0.0
-0.0526710811461307,-0.028392526911798346,0.16274063739068953,0.0
-0.05263674886664735,-0.028394672679266056,0.16275056156522769,0.0
-0.05267269047173148,-0.028392258690864883,0.1627733603445721,0.0
-0.05271828803042031,-0.02837375144645589,0.1627637043909674,0.0
-0.05271131428615025,-0.02835336665551265,0.16277952942604176,0.0
-0.05270004900694478,-0.02833459119017019,0.162788917158713,0.0
-0.052700585448811704,-0.028334054748303264,0.16277765187950752,0.0
-0.05271104606521679,-0.02830106357348723,0.1627653137165682,0.0
-0.05273733171669623,-0.028299186026952985,0.16273983272788914,0.0
-0.052734113065494664,-0.028310987748025387,0.16271220597174238,0.0
-0.05273545417016198,-0.028290334736148684,0.1627535119954958,0.0
-0.05278427038005237,-0.02826753595680427,0.16276129040256623,0.0
-0.052814311124600305,-0.02826083043346768,0.16273232254175216,0.0
-0.05276817712404455,-0.028270218166138908,0.16273446830921987,0.0
-0.05271426471641835,-0.028307769096823823,0.16273688229762104,0.0
-0.05270112189067863,-0.02829087117801561,0.16273875984415528,0.0
-0.052712923611751034,-0.02830320934095494,0.16273768696042143,0.0
-0.05266464384372757,-0.028289530073348293,0.1627674594840359,0.0
-0.05265525611105634,-0.028305891550289577,0.1627800658679087,0.0
-0.05268449219280388,-0.028308573759624214,0.16276933703057014,0.0
-0.052716678704819525,-0.028320375480696616,0.16276611837936858,0.0
-0.05266732605306221,-0.028339419166972538,0.16277067813523746,0.0
-0.05267054470426377,-0.028334054748303264,0.16277228746083824,0.0
-0.05269441636734204,-0.028301868236287622,0.162781406972576,0.0
-0.05269092949520701,-0.028273705038273936,0.16278838071684607,0.0
-0.0526592794250583,-0.028312865294559633,0.16281117949619048,0.0
-0.05261368186636947,-0.028326008120299354,0.16281091127525701,0.0
-0.0526083174477002,-0.028339419166972538,0.16280903372872277,0.0
-0.052647477703985895,-0.028341296713506783,0.1628066197403216,0.0
-0.05266974004146338,-0.028353903097379576,0.1628020599844527,0.0
-0.05265874298319137,-0.028350684446178012,0.16283424649646835,0.0
-0.052681005320668856,-0.028344515364708348,0.16282164011259556,0.0
-0.052737868158563156,-0.028322521248164326,0.1627918675889811,0.0
-0.052727943984025,-0.028291675840816002,0.1627771154376406,0.0
-0.05268476041373735,-0.028300795352553768,0.16276021751883238,0.0
-0.052653378564522096,-0.028317156829495052,0.16275807175136467,0.0
-0.05267161758799763,-0.028288993631481366,0.16277952942604176,0.0
-0.052697098576676676,-0.02830160001535416,0.16276880058870322,0.0
-0.052610194994234444,-0.02830964664335807,0.16273902806508875,0.0
-0.052552795714473216,-0.02828416565467902,0.16272937211148406,0.0
-0.052581227133420366,-0.02829435805015064,0.1627135470764097,0.0
-0.05259088308702506,-0.02825948932880036,0.16270067247160344,0.0
-0.05258230001715422,-0.028257075340399188,0.1627215937044136,0.0
-0.05256486565647908,-0.028262171538134997,0.1627371505185545,0.0
-0.05258873731955735,-0.028254929572931478,0.16274251493722378,0.0
-0.05262870223864344,-0.02823964097972405,0.1627379551813549,0.0
-0.0526201191687726,-0.02820986845610958,0.1627451971465584,0.0
-0.05259115130795852,-0.028216573979446172,0.1627363458557541,0.0
-0.05260778100583327,-0.028213355328244608,0.16271488818107702,0.0
-0.05265793832039098,-0.028179827711561647,0.16270818265774042,0.0
-0.05267751844853383,-0.028180900595295502,0.16272105726254668,0.0
-0.052656865436657124,-0.028164539118354218,0.16273983272788914,0.0
-0.05263674886664735,-0.02812913395513701,0.16276719126310243,0.0
-0.052667057832128744,-0.028103921187391422,0.16278274807724333,0.0
-0.052675104460132655,-0.02810231186179064,0.16277684721670713,0.0
-0.052615291191970254,-0.02809131480351863,0.16275217089082847,0.0
-0.052605098796498634,-0.02805430031470064,0.16276880058870322,0.0
-0.0526681307158626,-0.028029623988821983,0.16279294047271495,0.0
-0.05269602569294282,-0.028021577360818072,0.1628087655077893,0.0
-0.05268556507653774,-0.028035524849358184,0.16277282390270517,0.0
-0.05268368753000349,-0.028067174919506898,0.162781406972576,0.0
-0.052698439681343995,-0.027998510360540196,0.16280527863565428,0.0
-0.052697635018543604,-0.02798858618600204,0.16283371005460143,0.0
-0.052633530215445784,-0.027969810720659582,0.16281412992645858,0.0
-0.05261770518037143,-0.02801192140721338,0.16279347691458187,0.0
-0.05267242225079802,-0.02801567650028187,0.16279884133325115,0.0
-0.05274242791443204,-0.02800548410481025,0.16280903372872277,0.0
-0.052723920670023044,-0.02802935576788852,0.16283129606620025,0.0
-0.05267644556479997,-0.028025600674820027,0.16283961091513763,0.0
-0.052704340541880196,-0.028002801895475615,0.1628339782755349,0.0
-0.05275127920523634,-0.02801406717468109,0.16280930194965623,0.0
-0.05276737246124416,-0.02806502915203919,0.16279213580991456,0.0
-0.05272633465842422,-0.028078440198712373,0.16278489384471104,0.0
-0.052742159693498575,-0.02807522154751081,0.16278489384471104,0.0
-0.05279231700805628,-0.028056177861234887,0.16279964599605154,0.0
-0.05278856191498779,-0.028054032093767178,0.16280903372872277,0.0
-0.05272848042589193,-0.028069320686974607,0.16281493458925897,0.0
-0.05270004900694478,-0.028042766814561703,0.16282378588006327,0.0
-0.05273304018176081,-0.028029087546955055,0.16282244477539595,0.0
-0.052752352088970195,-0.028061810500837624,0.1628382698104703,0.0
-0.05266947182052992,-0.028045985465763267,0.1628331736127345,0.0
-0.052664912064661035,-0.028068247803240753,0.16285141263621003,0.0
-0.05268261464626964,-0.02805430031470064,0.16287287031088712,0.0
-0.0527161422629526,-0.028057518965902205,0.16287877117142333,0.0
-0.05268636973933813,-0.028049472337898295,0.16288467203195953,0.0
-0.05266383918092718,-0.02804410791922902,0.16288440381102606,0.0
-0.052683151088136565,-0.027999315023340587,0.16290612970663662,0.0
-0.05272445711188997,-0.027975711581195783,0.16290961657877165,0.0
-0.05272445711188997,-0.027993145941870922,0.16288601313662684,0.0
-0.05271131428615025,-0.028035524849358184,0.1628752842992883,0.0
-0.05272928508869232,-0.028012457849080307,0.1628701881015525,0.0
-0.05276656779844377,-0.028015408279348408,0.16286804233408478,0.0
-0.05273733171669623,-0.028033647302823938,0.16290666614850355,0.0
-0.052707827414015224,-0.02810016609432293,0.16291042124157204,0.0
-0.05274993810056902,-0.028082463512714328,0.16291846786957595,0.0
-0.05280653271752986,-0.028040084605227066,0.162914444555574,0.0
-0.052832550148075835,-0.02806449271017226,0.16288950000876187,0.0
-0.05280760560126371,-0.028078440198712373,0.1628900364506288,0.0
-0.05279580388019131,-0.02807683087311159,0.16287126098528634,0.0
-0.052830404380608126,-0.02806583381483958,0.16288225804355835,0.0
-0.052839792113279355,-0.028037134174958966,0.16293241535811606,0.0
-0.052823698857271534,-0.0280162129421488,0.16294260775358768,0.0
-0.052866882427559186,-0.027959886546121426,0.16293777977678534,0.0
-0.05292186771891924,-0.027941111080778968,0.1628951326483646,0.0
-0.05294171606799555,-0.02793038224344042,0.16288172160169143,0.0
-0.052911943544381085,-0.027922603836369974,0.16288064871795757,0.0
-0.05285669003208757,-0.027887198673152768,0.1628790393923568,0.0
-0.05287653838116388,-0.02784240577726433,0.16288654957849377,0.0
-0.05289772783490751,-0.02785125706806863,0.1628782347295564,0.0
-0.052862322671690304,-0.02787781094048154,0.16287930761329025,0.0
-0.05287090574156114,-0.027883980021951204,0.16290210639263467,0.0
-0.052893704520905555,-0.0278751287311469,0.16292061363704366,0.0
-0.0529132846490484,-0.02786788676594338,0.16291337167184014,0.0
-0.052882707462633544,-0.027871373638078407,0.16289835129956617,0.0
-0.05288163457889969,-0.027871373638078407,0.16290800725317087,0.0
-0.052861786229823376,-0.027792516683640085,0.1629418030907873,0.0
-0.052828258613140416,-0.02776381704375947,0.16294528996292232,0.0
-0.05276147160070796,-0.027770790788029527,0.1629490450559908,0.0
-0.05272311600722265,-0.027794662451107795,0.16294663106758964,0.0
-0.052752352088970195,-0.027797076439508968,0.16295119082345852,0.0
-0.052804118729128685,-0.02775121065988668,0.1629705027306679,0.0
-0.05279580388019131,-0.02775281998548746,0.16295843278866204,0.0
-0.05276817712404455,-0.02774262759001584,0.1629372433349184,0.0
-0.0527730051008469,-0.027723315682806456,0.16293107425344874,0.0
-0.05281297001993299,-0.027718219485070646,0.16293643867211802,0.0
-0.05282852683407388,-0.02770829531053249,0.1629291967069145,0.0
-0.05277971062418349,-0.027713927950135227,0.16293375646278338,0.0
-0.0527700546705788,-0.027704271996530534,0.16291605388117478,0.0
-0.05282799039220695,-0.027705613101197853,0.16292302762544483,0.0
-0.05282718572940656,-0.027698371135994333,0.16292973314878142,0.0
-0.05280680093846332,-0.027711513961734054,0.1629431441954546,0.0
-0.052815115787400696,-0.027719560589737964,0.16294931327692427,0.0
-0.05283120904340852,-0.02765009136797087,0.16294797217225696,0.0
-0.052871173962494605,-0.0275870594486069,0.1629350975674507,0.0
-0.0528867307766355,-0.027585986564873044,0.16293777977678534,0.0
-0.05286661420662572,-0.02757633061126835,0.16294850861412388,0.0
-0.05286661420662572,-0.027549508517921983,0.16292651449757986,0.0
-0.05286554132289187,-0.027520540657107906,0.16291042124157204,0.0
-0.05282638106660617,-0.0274910363544269,0.1629283920441141,0.0
-0.052774346205514217,-0.02745536297027623,0.16296728407946634,0.0
-0.05281672511300148,-0.027420762469859417,0.16293831621865226,0.0
-0.05289021764877053,-0.027407351423186233,0.1629157856602413,0.0
-0.05288029347423237,-0.027372482701835954,0.16292651449757986,0.0
-0.052877611264897734,-0.027379992887972937,0.16291766320677556,0.0
-0.0528867307766355,-0.027371946259969027,0.16291766320677556,0.0
-0.05288404856730086,-0.027328226247814443,0.16293107425344874,0.0
-0.052886462555702035,-0.027323934712879024,0.16292731916038025,0.0
-0.05287010107876075,-0.027349415701558077,0.16293107425344874,0.0
-0.0528749290555631,-0.027351293248092323,0.1629300013697149,0.0
-0.05291087066064723,-0.02736711828316668,0.16291793142770902,0.0
-0.05287466083462963,-0.0273773106786383,0.16295092260252506,0.0
-0.05283710990394472,-0.027373287364636345,0.16292463695104561,0.0
-0.05280975136873142,-0.02728933421246221,0.16293643867211802,0.0
-0.052790171240588574,-0.027279678258857517,0.1629157856602413,0.0
-0.052742159693498575,-0.02725285616551115,0.16290612970663662,0.0
-0.052706486309347905,-0.02728799310779489,0.16291712676490863,0.0
-0.052714532937351816,-0.027290407096196064,0.1629181996486425,0.0
-0.052746451228433994,-0.027291211758996455,0.16286482368288321,0.0
-0.05281404290366684,-0.027304086363802712,0.1628516808571435,0.0
-0.05282718572940656,-0.02733359066648372,0.16287474785742137,0.0
-0.0527818563916512,-0.027338955085152994,0.162877430066756,0.0
-0.05279794964765902,-0.02737221448090249,0.16288279448542528,0.0
-0.05280304584539483,-0.027357462329561988,0.16289620553209846,0.0
-0.05279875431045941,-0.027416470934923998,0.1628841355900926,0.0
-0.05280090007792712,-0.02741217939998858,0.16290291105543506,0.0
-0.05283362303180969,-0.027390989946244948,0.16290237461356813,0.0
-0.052831745485275444,-0.027405205655718523,0.16288145338075796,0.0
-0.05278346571725198,-0.02741298406278897,0.1628656283456836,0.0
-0.052708632076815615,-0.027432295969998355,0.1629010335089008,0.0
-0.05267322691359841,-0.027422640016393662,0.16291256700903975,0.0
-0.05268073709973539,-0.027405205655718523,0.16291417633464053,0.0
-0.05267966421600154,-0.02739259927184573,0.16291390811370707,0.0
-0.052648818808653214,-0.02743926971426841,0.16290076528796735,0.0
-0.05261770518037143,-0.027439537935201874,0.16290961657877165,0.0
-0.05262521536650841,-0.027343514841021876,0.16295977389332936,0.0
-0.05265793832039098,-0.027316156305808578,0.16299303328907885,0.0
-0.05265150101798785,-0.027344051282888804,0.16300322568455047,0.0
-0.052630579785177684,-0.027364436073832044,0.16297533070747025,0.0
-0.05266169341345947,-0.027328226247814443,0.16293187891624913,0.0
-0.052621996715306846,-0.02727699604952288,0.16292946492784796,0.0
-0.05260107548249668,-0.02729443041019802,0.16295119082345852,0.0
-0.052602416587164,-0.02733064023621562,0.16294716750945656,0.0
-0.05262467892464148,-0.027301404154468075,0.16293268357904953,0.0
-0.05260939033143405,-0.027290675317129528,0.16293375646278338,0.0
-0.05257774026128534,-0.02739340393464612,0.16290210639263467,0.0
-0.05252811938859456,-0.0273743602483702,0.16291042124157204,0.0
-0.05252624184206031,-0.0273292991315483,0.16291980897424327,0.0
-0.05257371694728338,-0.027362558527297798,0.1629431441954546,0.0
-0.052583909342755,-0.027372482701835954,0.16295038616065813,0.0
-0.052557087249408635,-0.027323934712879024,0.16294582640478925,0.0
-0.052546894853937015,-0.02730676857313735,0.16291712676490863,0.0
-0.052562988109944836,-0.02726170745631545,0.16291551743930785,0.0
-0.05258149535435383,-0.027267340095918188,0.16293563400931763,0.0
-0.05257908136595266,-0.027297112619532656,0.16293322002091645,0.0
-0.05257586271475109,-0.02727485028205517,0.16292973314878142,0.0
-0.05261046321516791,-0.027269485863385897,0.16292812382318064,0.0
-0.05261260898263562,-0.027283165130992545,0.16290022884610042,0.0
-0.052581763575287294,-0.02729738084046612,0.16289861952049964,0.0
-0.052602416587164,-0.027267071874984724,0.16294528996292232,0.0
-0.052681005320668856,-0.02729094353806299,0.1629986659286816,0.0
-0.05267832311133422,-0.027281019363524835,0.16297854935867181,0.0
-0.052672958692664945,-0.027300599491667684,0.16294663106758964,0.0
-0.052631920889845,-0.02727699604952288,0.16297667181213757,0.0
-0.05259973437782936,-0.027264389665650087,0.16296326076546438,0.0
-0.052596515726627796,-0.027250978618976903,0.16295092260252506,0.0
-0.05261073143610137,-0.02735263435275964,0.1629262462766464,0.0
-0.05255172283073936,-0.027404400992918132,0.16293831621865226,0.0
-0.052487886248575005,-0.02739179460904534,0.1629321471371826,0.0
-0.0525240960745926,-0.027355853003961206,0.16293563400931763,0.0
-0.0525240960745926,-0.02733573643395143,0.1629085436950378,0.0
-0.052522754969925284,-0.027424249341994444,0.16287126098528634,0.0
-0.05249995619058087,-0.02743256419093182,0.16290317927636852,0.0
-0.05246911078323255,-0.027454290086542377,0.16290210639263467,0.0
-0.05245865016682746,-0.027500960528965057,0.16290317927636852,0.0
-0.05243558316654958,-0.027550313180722374,0.16287716184582254,0.0
-0.05232749013036372,-0.027524295750176397,0.16288145338075796,0.0
-0.05235779909584511,-0.027552458948190084,0.1628310278452668,0.0
-0.05240286021266701,-0.027482453284556063,0.1628878906831611,0.0
-0.05241466193373941,-0.02750122874989852,0.16295172726532545,0.0
-0.05236048130517975,-0.027560773797127458,0.16291766320677556,0.0
-0.05237335590998601,-0.027589741657941536,0.16290317927636852,0.0
-0.052364504619181705,-0.02757338018100025,0.1628715292062198,0.0
-0.052341169397970365,-0.027576062390334888,0.16289566909023154,0.0
-0.05233070878156528,-0.027660551984375954,0.1629181996486425,0.0
-0.05232427147916215,-0.027783128950968856,0.16285329018274428,0.0
-0.05235189823530891,-0.027809414602448297,0.16284604821754076,0.0
-0.0524457755620212,-0.027738604276013885,0.1628937915436973,0.0
-0.05243772893401729,-0.02778125140443461,0.16290210639263467,0.0
-0.05240473775920126,-0.027730021206143048,0.16289620553209846,0.0
-0.052339828293303046,-0.02771714660133679,0.16295387303279316,0.0
-0.05226579931566707,-0.027859035475139078,0.16291793142770902,0.0
-0.05246857434136562,-0.027895781743023606,0.16254564077206143,0.0
-0.05252543717925992,-0.027728411880542266,0.162943948858255,0.0
-0.0524310234106807,-0.027776691648565728,0.16294528996292232,0.0
-0.05245006709695662,-0.027824434974722263,0.16290505682290277,0.0
-0.05245435863189204,-0.027887466894086232,0.16292088185797712,0.0
-0.052421367457076005,-0.02796176409265567,0.16292570983477947,0.0
-0.05239669113119735,-0.02791804408050109,0.16293241535811606,0.0
-0.05240420131733433,-0.02786279056820757,0.16296352898639785,0.0
-0.0524546268528255,-0.027917507638634164,0.1629477039513235,0.0
-0.05241063861973746,-0.027950498813450197,0.1629359022302511,0.0
-0.05240768818946936,-0.02795800899958718,0.1629283920441141,0.0
-0.05240849285226975,-0.027997169255872877,0.16291846786957595,0.0
-0.05240339665453394,-0.027991000174403213,0.16293402468371684,0.0
-0.05229476717648115,-0.02808621860578282,0.16291176234623936,0.0
-0.05224031832698802,-0.028010848523479525,0.16291793142770902,0.0
-0.05239052204972768,-0.0279142889874326,0.16296138321893014,0.0
-0.05233285454903299,-0.02795291280185137,0.16290961657877165,0.0
-0.052282160792608355,-0.02793896531331126,0.16291310345090668,0.0
-0.05227465060647137,-0.028016749384015726,0.16288279448542528,0.0
-0.0524251225501445,-0.0280878279313836,0.16284524355474037,0.0
-0.052440947585218854,-0.02804759479136405,0.1628487304268754,0.0
-0.052236295012986066,-0.028100434315256394,0.1628264680893979,0.0
-0.05234572915383925,-0.028036329512158575,0.16280769262405545,0.0
-0.05235082535157506,-0.027967933174125336,0.1628618732526151,0.0
-0.052340364735169974,-0.027937087766777013,0.16291417633464053,0.0
-0.05228028324607411,-0.027956131453052934,0.16288011227609064,0.0
-0.05229262140901344,-0.0279770526858631,0.1628841355900926,0.0
-0.0522987904904831,-0.027978125569596956,0.16286991988061902,0.0
-0.052300399816083885,-0.028025600674820027,0.16286401902008282,0.0
-0.05229852226954964,-0.028057250744968742,0.16287689362488908,0.0
-0.05221644666390975,-0.02806368804737187,0.1629010335089008,0.0
-0.05219284322176495,-0.028072271117242708,0.16291900431144288,0.0
-0.05249405533004467,-0.02794915770878288,0.16289030467156226,0.0
-0.0523948135846631,-0.028015140058414944,0.16286536012475014,0.0
-0.05252490073739299,-0.028119209780598852,0.16281091127525701,0.0
-0.05271104606521679,-0.02813154794353818,0.16275082978616115,0.0
-0.0525662067611464,-0.0281328890482055,0.16279508624018266,0.0
-0.05211210872079238,-0.02799448704653824,0.16284738932220807,0.0
-0.05207268024357322,-0.02815461494381606,0.1628546312874116,0.0
-0.05243558316654958,-0.028000119686140978,0.16279830489138422,0.0
-0.05206329251090199,-0.027724925008407238,0.16302307403362679,0.0
-0.05182886741505473,-0.027838382463262375,0.16310756362766785,0.0
-0.052484131155506514,-0.028018626930549972,0.1629726484981356,0.0
-0.052489227353242324,-0.028001997232675224,0.1628280774149987,0.0
-0.0519310595907044,-0.02786654566127606,0.1627881124959126,0.0
-0.051995164393802216,-0.027907583464096008,0.16303380287096533,0.0
-0.052106476081189644,-0.027984026430133157,0.16302173292895947,0.0
-0.05217406775642249,-0.028088096152317065,0.16295601880026087,0.0
-0.05264694126211897,-0.028313938178293488,0.16290532504383623,0.0
-0.05272928508869232,-0.028240177421590976,0.16280769262405545,0.0
-0.053829795578693815,-0.028684887729273762,0.16267760547132556,0.0
-0.053778833601335715,-0.028551850146275776,0.1627173021694782,0.0
-0.052232539919917574,-0.028052959210033323,0.16275082978616115,0.0
-0.05175912997235417,-0.028181168816228966,0.16267089994798897,0.0
-0.05135599390935825,-0.028074953326577345,0.16280688796125506,0.0
-0.052055514103831545,-0.028030696872555837,0.163154502291024,0.0
-0.051760202856088025,-0.027562919564595167,0.1632105604661179,0.0
-0.051585322807469705,-0.027542534773651928,0.163002957463617,0.0
-0.051774150344628136,-0.02766457529837791,0.1631255344302099,0.0
-0.05182457588011931,-0.02766886683331333,0.16311346448820405,0.0
-0.05185139797346568,-0.027689519845190032,0.16310085810433125,0.0
-0.051873123869076235,-0.02778929803243852,0.1630828873017892,0.0
-0.051863736136405006,-0.027844015102865112,0.16304319060363656,0.0
-0.051849788647864894,-0.02776810857869489,0.16306116140617863,0.0
-0.05183476827559093,-0.027784470055636175,0.16307859576685377,0.0
-0.05180365464730914,-0.027834895591127347,0.16306840337138215,0.0
-0.051868832334140816,-0.02777964207883383,0.16309656656939583,0.0
-0.05188948534601752,-0.02775630685762249,0.16307135380165025,0.0
-0.051862126810804224,-0.02780807349778098,0.16311561025567176,0.0
-0.05184952042693143,-0.027833286265526565,0.16313492216288114,0.0
-0.05184093735706059,-0.027859303696072542,0.16309817589499662,0.0
-0.051827258089453945,-0.027874860510213435,0.1630702809179164,0.0
-0.051831549624389364,-0.027910802115297572,0.16306411183644673,0.0
-0.05189780019495489,-0.027878347382348467,0.16303085244069723,0.0
-0.05186132214800383,-0.027826848963123436,0.16296916162600059,0.0
-0.05184281490359484,-0.02776381704375947,0.16302977955696338,0.0
-0.05189592264842065,-0.027678254565984557,0.16302039182429215,0.0
-0.0519879224285987,-0.02776220771815869,0.16302629268482835,0.0
-0.0519849719983306,-0.027755233973888634,0.1630163685102902,0.0
-0.051968074079522385,-0.027824434974722263,0.1629860595448088,0.0
-0.05198684954486484,-0.027807805276847515,0.16293322002091645,0.0
-0.052012598754477356,-0.02769729825226048,0.16297318494000254,0.0
-0.05198819064953216,-0.02778473827656964,0.16298257267267377,0.0
-0.051999455928737635,-0.027869764312477625,0.162932951799983,0.0
-0.052019840719680875,-0.02786064480073986,0.16291632210210824,0.0
-0.0520683887086378,-0.027942452185446286,0.16291498099744092,0.0
-0.05203781152222294,-0.027998510360540196,0.16288091693889103,0.0
-0.05197638892845976,-0.027870568975278016,0.1629106894625055,0.0
-0.05198309445179635,-0.027888539777820087,0.16291256700903975,0.0
-0.05197477960285898,-0.027958545441454107,0.16289405976463076,0.0
-0.051942593090843335,-0.02802077269801768,0.16288842712502802,0.0
-0.05191389345096272,-0.027993145941870922,0.1628790393923568,0.0
-0.0519605638933854,-0.028016481163082262,0.1628339782755349,0.0
-0.05195412659098227,-0.028031233314422765,0.16288279448542528,0.0
-0.05196619653298814,-0.02802935576788852,0.16290881191597126,0.0
-0.05199838304500378,-0.02812484242020159,0.16288574491569338,0.0
-0.05202466869648322,-0.028034720186557793,0.1629342929046503,0.0
-0.05200052881247149,-0.028058323628702597,0.16295628702119433,0.0
-0.05197209739352434,-0.028099629652456003,0.16297533070747025,0.0
-0.051950639718847245,-0.028111967815395333,0.1629578963467951,0.0
-0.05192703627670244,-0.028130206838870863,0.1629342929046503,0.0
-0.05190557860202534,-0.028131816164471645,0.162884940252893,0.0
-0.0518792929505459,-0.02806288338457148,0.16293777977678534,0.0
-0.05187285564814277,-0.028120014443399243,0.16293643867211802,0.0
-0.051854884845600704,-0.02814227678087673,0.1629313424743822,0.0
-0.051862931473604615,-0.028189215444232876,0.16286804233408478,0.0
-0.0518253805429197,-0.028187606118632094,0.16286616478755053,0.0
-0.05180875084504495,-0.028197262072236787,0.1629211500789106,0.0
-0.05184066913612713,-0.028169367095156564,0.16289620553209846,0.0
-0.05174008628607825,-0.028214428211978462,0.16285811815954662,0.0
-0.05172265192540311,-0.028173122188225055,0.16277899298417484,0.0
-0.05174545070474752,-0.028188947223299413,0.16309549368566198,0.0
-0.05169636627392367,-0.028291675840816002,0.1629490450559908,0.0
-0.05166444798284149,-0.028207186246774943,0.1629721120562687,0.0
-0.0516842963319178,-0.02814227678087673,0.16290344749730198,0.0
-0.051675713262046966,-0.028156224269416844,0.16306491649924712,0.0
-0.05164245386629747,-0.028216573979446172,0.16299008285881075,0.0
-0.0517264070184716,-0.02819457986290215,0.16299222862627846,0.0
-0.0517744185655616,-0.028159979362485335,0.1630177096149575,0.0
-0.05178702494943439,-0.028181168816228966,0.16302682912669528,0.0
-0.05175349733275143,-0.028205040479307233,0.16303004777789684,0.0
-0.05172560235567121,-0.028213087107311144,0.1630429223827031,0.0
-0.05173794051861054,-0.02822381594464969,0.16305526054564243,0.0
-0.05168483277378473,-0.028241518526258294,0.16303675330123343,0.0
-0.05167303105271233,-0.028264317305602707,0.1630311206616307,0.0
-0.05171487351833266,-0.028256270677598797,0.16302951133602991,0.0
-0.05175778886768685,-0.02826243975906846,0.16305365122004165,0.0
-0.05176127573982188,-0.028247419386794495,0.1630732313481845,0.0
-0.05175349733275143,-0.02823749521225634,0.16308476484832343,0.0
-0.051746255367547914,-0.028205308700240697,0.16309924877873047,0.0
-0.05173338076274166,-0.028150859850747566,0.16306786692951522,0.0
-0.05170468112286104,-0.02811116315259494,0.16305740631311014,0.0
-0.051730966774340484,-0.028119209780598852,0.16303460753376572,0.0
-0.05173203965807434,-0.028125915303935444,0.16303272998723148,0.0
-0.051746255367547914,-0.028162929792753436,0.16302468335922757,0.0
-0.05178219697263205,-0.02823239901452053,0.16305821097591053,0.0
-0.051765299053823835,-0.02822435238651662,0.16309147037166002,0.0
-0.051803922868242605,-0.028219792630647736,0.1630555287665759,0.0
-0.051825112321986236,-0.02828711608494712,0.16305579698750935,0.0
-0.05181813857771618,-0.028326008120299354,0.163058479196844,0.0
-0.05180928728691188,-0.02840084176073572,0.16305123723164047,0.0
-0.051811164833446124,-0.028497133075849185,0.16302682912669528,0.0
-0.051811164833446124,-0.028503838599185777,0.16297452604466986,0.0
-0.051839596252393275,-0.028480503377974437,0.16297077095160137,0.0
-0.05183181784532283,-0.028498474180516504,0.16300698077761896,0.0
-0.05188573025294903,-0.02860683543763583,0.1629675523003998,0.0
-0.051932400695371715,-0.02855801922774544,0.1629772082540045,0.0
-0.05192971848603708,-0.02849015933157913,0.16302253759175986,0.0
-0.05194742106764568,-0.028527173820397118,0.1630303159988303,0.0
-0.051970219846990094,-0.0285826955536241,0.16296191966079707,0.0
-0.05202359581274937,-0.028610858751637786,0.16294716750945656,0.0
-0.05204934502236188,-0.028626952007645607,0.16295333659092623,0.0
-0.05205202723169652,-0.028618905379641697,0.16297854935867181,0.0
-0.05201233053354389,-0.02864760501952231,0.16297372138186947,0.0
-0.05194017910244216,-0.02869722589221309,0.16295306836999277,0.0
-0.051928109160436296,-0.028679255089671025,0.1629418030907873,0.0
-0.05190691970669266,-0.028647068577655383,0.16293912088145265,0.0
-0.051894313322819866,-0.02868247374087259,0.16296004211426282,0.0
-0.051868832334140816,-0.028652969438191584,0.1629696980678675,0.0
-0.0518704416597416,-0.028635535077516445,0.16296487009106517,0.0
-0.051899409520555675,-0.028672549566334433,0.16298445021920802,0.0
-0.051914966334696576,-0.028727803078627955,0.16298123156800645,0.0
-0.05188894890415059,-0.02872538909022678,0.16296433364919824,0.0
-0.05187553785747741,-0.028700980985281583,0.16297023450973444,0.0
-0.0518763425202778,-0.02866584404299784,0.16301395452188902,0.0
-0.051860785706136905,-0.028664502938330522,0.16304426348737042,0.0
-0.05185461662466724,-0.028679791531537952,0.16305204189444086,0.0
-0.051855689508401095,-0.028677109322203315,0.16306786692951522,0.0
-0.0518763425202778,-0.02860603077483544,0.16306706226671483,0.0
-0.05183289072905668,-0.02858189089082371,0.16304721391763852,0.0
-0.0517537655536849,-0.02856096965801354,0.16305579698750935,0.0
-0.051736062972076294,-0.028545144622939184,0.16306089318524516,0.0
-0.0517626168444892,-0.02862346513551058,0.16304694569670505,0.0
-0.051764494391023444,-0.02863526685658298,0.1630598203015113,0.0
-0.051745718925680986,-0.028622392251776724,0.16306813515044868,0.0
-0.051735526530209366,-0.0286484096823227,0.16306545294111405,0.0
-0.05173418542554205,-0.028596106600297284,0.16307725466218645,0.0
-0.05172399303007043,-0.028611663414438177,0.1630858377320573,0.0
-0.05169341584365557,-0.028613540960972423,0.1631204382324741,0.0
-0.05168456455285127,-0.028634193972849126,0.1631367997094154,0.0
-0.05173499008834244,-0.028661552508062422,0.1631005898833978,0.0
-0.051737672297677076,-0.028676572880336388,0.1631035403136659,0.0
-0.05174089094887864,-0.028676572880336388,0.16311936534874025,0.0
-0.05176395794915652,-0.02872887596236181,0.1631271437558107,0.0
-0.051795876240238695,-0.028709564055152424,0.1631241933255426,0.0
-0.05182618520572009,-0.028629634216980244,0.16314618744208662,0.0
-0.05177200457716043,-0.02864465458925421,0.16313948191875002,0.0
-0.051772541019027354,-0.02875301584637354,0.16311614669753868,0.0
-0.05179775378677294,-0.028791907881725774,0.16307189024351718,0.0
-0.05176637193755769,-0.028687838159541863,0.16311400093007097,0.0
-0.0517803194260978,-0.02872592553209371,0.16309817589499662,0.0
-0.05183396361279054,-0.028785470579322646,0.16305338299910818,0.0
-0.051822966554518526,-0.028738263695033038,0.16311051405793595,0.0
-0.051845497112929476,-0.02872538909022678,0.16313572682568153,0.0
-0.051824307659185845,-0.028781179044387227,0.16314055480248388,0.0
-0.0518460335547964,-0.028809342242400914,0.16314591922115315,0.0
-0.05188090227614668,-0.028848770719620075,0.16312902130234494,0.0
-0.051899409520555675,-0.028836968998547673,0.16313545860474807,0.0
-0.05187124632254199,-0.028811488009868623,0.16312365688367567,0.0
-0.05185542128746763,-0.028804246044665104,0.16312017001154064,0.0
-0.051855689508401095,-0.02881336555640287,0.1630976394531297,0.0
-0.05185917638053612,-0.02881121978893516,0.16309120215072656,0.0
-0.05184415600826216,-0.028832677463612254,0.16310407675553282,0.0
-0.05184737465946372,-0.02886084066162594,0.16312660731394377,0.0
-0.05183798692679249,-0.028836968998547673,0.1631330446163469,0.0
-0.05185086153159875,-0.028832945684545717,0.16313465394194768,0.0
-0.051860785706136905,-0.02888042078976879,0.16312741197674416,0.0
-0.05187285564814277,-0.028923336139122978,0.16308932460419232,0.0
-0.05185676239213495,-0.028852525812688566,0.16309790767406315,0.0
-0.051836645822125174,-0.028770986648915607,0.16309790767406315,0.0
-0.051800167775174114,-0.028819534637872533,0.16306169784804556,0.0
-0.051778441879563555,-0.028878543243234543,0.16303246176629801,0.0
-0.05177066347249311,-0.02886727796402907,0.16304050839430193,0.0
-0.051838791589592884,-0.02881336555640287,0.1630429223827031,0.0
-0.05185542128746763,-0.02881792531227175,0.16300698077761896,0.0
-0.05185005686879836,-0.0287924443235927,0.16303165710349762,0.0
-0.051870978101608525,-0.02883884654508192,0.16304184949896924,0.0
-0.05189002178788445,-0.02884126053348309,0.16305660165030975,0.0
-0.05191308878816233,-0.028827044824009516,0.16309254325539388,0.0
-0.051896459090287575,-0.028899196255111247,0.16308744705765807,0.0
-0.05190718792762612,-0.02888122545256918,0.1630909339297931,0.0
-0.05195895456778462,-0.02886379109189404,0.16314216412808466,0.0
-0.05198389911459674,-0.028838578324148455,0.16314350523275198,0.0
-0.051996505498469535,-0.028840724091616164,0.163154502291024,0.0
-0.05199704194033646,-0.02891099797618365,0.16309522546472852,0.0
-0.052009648324209255,-0.02878868923052421,0.1631182924650064,0.0
-0.05206087852250082,-0.028756234497575105,0.1630842284064565,0.0
-0.05208206797624445,-0.028782520149054545,0.1630496279060397,0.0
-0.052044785266493,-0.028779569718786445,0.16304748213857198,0.0
-0.05203056955701942,-0.028810146905201305,0.16304265416176963,0.0
-0.05204263949902529,-0.02879378542826002,0.16303138888256416,0.0
-0.05199784660313685,-0.028731558171696446,0.16305204189444086,0.0
-0.051997310161269926,-0.028713319148220916,0.16305660165030975,0.0
-0.05203405642915445,-0.028658065635927394,0.1630960301275289,0.0
-0.05205497766196462,-0.028700444543414656,0.16307644999938606,0.0
-0.052057659871299254,-0.028729412404228737,0.16305016434790662,0.0
-0.05206919337143819,-0.028735045043831474,0.16307886398778723,0.0
-0.05204639459209378,-0.02872887596236181,0.1631153420347383,0.0
-0.05205175901076305,-0.028715464915688625,0.16311695136033907,0.0
-0.05207938576690981,-0.028720024671557508,0.1630968347903293,0.0
-0.05203995728969065,-0.028686765275808008,0.16308664239485768,0.0
-0.0519694151841897,-0.028623196914577115,0.16308530129019036,0.0
-0.05197477960285898,-0.02858993751882762,0.1630643800573802,0.0
-0.05200482034740691,-0.028590205739761083,0.16307564533658567,0.0
-0.052038079743156405,-0.028559092111479296,0.16308610595299075,0.0
-0.0520565869875654,-0.028542462413604548,0.16310434497646628,0.0
-0.05209306503451646,-0.028544608181072257,0.16311882890687332,0.0
-0.05211398626732663,-0.028502765715451923,0.1631271437558107,0.0
-0.05205310011543037,-0.02851054412252237,0.16314028658155041,0.0
-0.05202091360341473,-0.028534952227467564,0.16312070645340757,0.0
-0.05198819064953216,-0.028496328413048794,0.16310917295326863,0.0
-0.051982558009929423,-0.02847406607557131,0.1631027356508655,0.0
-0.05197209739352434,-0.028498474180516504,0.16308825172045846,0.0
-0.05196968340512317,-0.02847406607557131,0.16311024583700248,0.0
-0.05195841812591769,-0.028489622889712202,0.16310675896486745,0.0
-0.052002406359005736,-0.028460655028898125,0.1630791322087207,0.0
-0.052044785266493,-0.02841398458647544,0.16312177933714142,0.0
-0.052060610301567355,-0.028470847424369745,0.163117487802206,0.0
-0.052060610301567355,-0.02846333723823276,0.16314296879088505,0.0
-0.052087700615847186,-0.028475407180238627,0.1631330446163469,0.0
-0.05214402701187456,-0.028485599575710247,0.16311936534874025,0.0
-0.05213598038387065,-0.028496328413048794,0.16309254325539388,0.0
-0.052078849325042885,-0.02853978020426991,0.1630930796972608,0.0
-0.05203673863848909,-0.028564992972015497,0.16308396018552304,0.0
-0.05201876783594702,-0.028571966716285552,0.16308100975525494,0.0
-0.05203191066168674,-0.028604957891101585,0.16307376779005142,0.0
-0.052054172999164226,-0.028646263914854992,0.16305311477817472,0.0
-0.05208045865064367,-0.02862722022857907,0.16308235085992226,0.0
-0.05214134480253992,-0.028578940460555608,0.163050969010707,0.0
-0.05213624860480411,-0.028557751006811977,0.16305526054564243,0.0
-0.05213437105826987,-0.028570089169751307,0.1631005898833978,0.0
-0.05212444688373171,-0.028596106600297284,0.16307001269698293,0.0
-0.052122301116264,-0.02864894612418963,0.16300563967295165,0.0
-0.05207348490637361,-0.02859583837936382,0.16304855502230584,0.0
-0.05204934502236188,-0.02856821162321706,0.16309737123219623,0.0
-0.05208340908091177,-0.028628024891379462,0.1630724266853841,0.0
-0.05211559559292741,-0.028663966496463595,0.16303299820816494,0.0
-0.052076703557575175,-0.02867174490353404,0.16301154053348785,0.0
-0.05203486109195484,-0.028691861473543818,0.16302119648709254,0.0
-0.052079653987843276,-0.028704467857416614,0.16305445588284204,0.0
-0.052128470197733666,-0.02870151742714851,0.163050969010707,0.0
-0.052122301116264,-0.02868032797340488,0.16304935968510623,0.0
-0.05212203289533054,-0.0286934707991446,0.1630614296271121,0.0
-0.05216360714001741,-0.028759184927843205,0.16307805932498684,0.0
-0.05217192198895478,-0.028802368498130858,0.16306974447604947,0.0
-0.05213007952333445,-0.028814706661070187,0.1630960301275289,0.0
-0.05217272665175517,-0.028810683347068232,0.1631027356508655,0.0
-0.05219016101243031,-0.028827044824009516,0.16308851994139192,0.0
-0.052228248384982155,-0.028866473301228678,0.16306464827831366,0.0
-0.052280015025140646,-0.028818729975072142,0.16307510889471874,0.0
-0.05228457478100953,-0.02885493980108974,0.1630555287665759,0.0
-0.052297449385815785,-0.02887693391763376,0.16309120215072656,0.0
-0.052317029513958634,-0.028850916487087784,0.16310810006953477,0.0
-0.05232132104889405,-0.028884444103770744,0.16312499798834298,0.0
-0.05229503539741461,-0.028907779324982084,0.16312151111620796,0.0
-0.0523202481651602,-0.028954449767404765,0.16310970939513555,0.0
-0.05233741430490187,-0.028938624732330408,0.16309361613912773,0.0
-0.05236128596798014,-0.028879347906034934,0.1630828873017892,0.0
-0.0523497524678412,-0.028967056151277558,0.16310756362766785,0.0
-0.05230871466502126,-0.02900192487262784,0.16313170351167958,0.0
-0.052363699956381314,-0.0289785896514165,0.16311105049980287,0.0
-0.052296108281148466,-0.028919581046054486,0.1630901292669927,0.0
-0.05230415490915238,-0.028984758732886164,0.1630968347903293,0.0
-0.05228162435074143,-0.028995755791158175,0.16309656656939583,0.0
-0.05227384594367098,-0.02899092781435583,0.1630887881623254,0.0
-0.05225131538526003,-0.028948817127802028,0.1630627707317794,0.0
-0.05218989279149685,-0.028952035779003592,0.163039971952435,0.0
-0.05224246409445573,-0.028926018348457615,0.1630480185804389,0.0
-0.052233344582717965,-0.02884394274281773,0.16309254325539388,0.0
-0.05223522212925221,-0.028861377103492868,0.16310675896486745,0.0
-0.05222342040817981,-0.028858963115091694,0.16306330717364634,0.0
-0.0522153737801759,-0.028876397475766834,0.16305633342937628,0.0
-0.05219498898923266,-0.028878543243234543,0.16307644999938606,0.0
-0.05220249917536964,-0.02886513219656136,0.16307725466218645,0.0
-0.05220813181497238,-0.02890080558071203,0.1630319253244311,0.0
-0.052179432175091765,-0.028877202138567225,0.1630946890228616,0.0
-0.05215448762827964,-0.028887394534038845,0.16309254325539388,0.0
-0.052137053267604504,-0.028916362394852922,0.16305499232470896,0.0
-0.05215931560508199,-0.028908583987782475,0.16305955208057785,0.0
-0.05218345548909372,-0.028932455650860743,0.16309147037166002,0.0
-0.05214992787241076,-0.028919312825121023,0.1631300941860788,0.0
-0.052159047384148526,-0.028907779324982084,0.1631477967676874,0.0
-0.05218291904722679,-0.02890241490631281,0.16314028658155041,0.0
-0.05219016101243031,-0.028902951348179738,0.1631241933255426,0.0
-0.0521585109422816,-0.02891260730178443,0.1631225839999418,0.0
-0.05216950800055361,-0.02891850816232063,0.1631300941860788,0.0
-0.052231198815250256,-0.02896142351167482,0.1630960301275289,0.0
-0.052246487408457686,-0.029012653709966387,0.1630547241037755,0.0
-0.05227947858327372,-0.02891475306925214,0.16309951699966393,0.0
-0.052371746584385225,-0.02885279403362203,0.1631107822788694,0.0
-0.05236772327038327,-0.02885574446389013,0.16310890473233516,0.0
-0.052375501677453716,-0.02886298642909365,0.16310139454619818,0.0
-0.05238435296825802,-0.02893004166245957,0.16305928385964438,0.0
-0.05238328008452416,-0.0289541815464713,0.16302495158016103,0.0
-0.052395886468396956,-0.02892199503445566,0.16303648508029997,0.0
-0.05238944916599383,-0.028908047545915548,0.16306974447604947,0.0
-0.052398032235864665,-0.028977516767682645,0.16305901563871092,0.0
-0.05233634142116802,-0.028998438000492812,0.16304828680137237,0.0
-0.052321589269827516,-0.02899468290742432,0.16304345882457003,0.0
-0.052338218967702264,-0.029013190151833314,0.16304989612697315,0.0
-0.05232266215356137,-0.02901506769836756,0.16305794275497706,0.0
-0.05230495957195277,-0.029001656651694376,0.16306196606897902,0.0
-0.05233714608396841,-0.028949353569668955,0.16307859576685377,0.0
-0.05238730339852612,-0.02894613491846739,0.1630643800573802,0.0
-0.05242619543387835,-0.028958204860473256,0.16306196606897902,0.0
-0.052442556910819636,-0.028957936639539793,0.16306679404578137,0.0
-0.052448189550422374,-0.028937820069530017,0.16309334791819427,0.0
-0.05246294170176288,-0.02892279969725605,0.16307349956911796,0.0
-0.052433705620015335,-0.0289541815464713,0.16306411183644673,0.0
-0.05241600303840673,-0.029003534198228622,0.16306625760391444,0.0
-0.05244336157362003,-0.029005411744762868,0.16309442080192812,0.0
-0.05247447520190182,-0.028944257371933145,0.16312151111620796,0.0
-0.052498883306847016,-0.028946671360334318,0.1631292895232784,0.0
-0.05249915152778048,-0.029002461314494767,0.1631019309880651,0.0
-0.0525004926324478,-0.029008093954097505,0.16307001269698293,0.0
-0.05248681336484115,-0.028950158232469346,0.16305713809217667,0.0
-0.05250505238831668,-0.02891341196458482,0.16304050839430193,0.0
-0.05248037606243802,-0.028900000917911638,0.16303648508029997,0.0
-0.05250692993485093,-0.028912070859917503,0.16299732482401427,0.0
-0.05255225927260629,-0.028838041882281527,0.16297989046333913,0.0
-0.05255252749353975,-0.028738800136899965,0.16299008285881075,0.0
-0.05251980453965718,-0.028747651427704267,0.16298123156800645,0.0
-0.052498883306847016,-0.028767231555847116,0.16299678838214735,0.0
-0.05249056845790964,-0.028723243322759072,0.1629941061728127,0.0
-0.052507466376717854,-0.028758380265042814,0.16295521413746047,0.0
-0.05247125655070026,-0.028668526252332478,0.1630303159988303,0.0
-0.05247635274843607,-0.028647873240455774,0.16303514397563265,0.0
-0.052499419748713944,-0.028657260973127003,0.16301985538242522,0.0
-0.052516317667522155,-0.028605494332968513,0.16299759304494774,0.0
-0.052539652888733496,-0.02857840401868868,0.1630340710918988,0.0
-0.05254045755153389,-0.028606298995768904,0.1630155638474898,0.0
-0.052562988109944836,-0.02859074218162801,0.1630265609057618,0.0
-0.05260402591276478,-0.028569820948817843,0.16301207697535477,0.0
-0.05258498222648886,-0.028549704378808067,0.16297479426560332,0.0
-0.05258417756368847,-0.028574112483753262,0.16297667181213757,0.0
-0.052543944423668915,-0.02857759935588829,0.163002957463617,0.0
-0.05256754786581372,-0.028535488669334492,0.16302682912669528,0.0
-0.052613950087302935,-0.02851215344812315,0.16303568041749958,0.0
-0.05260429413369824,-0.028493646203714158,0.16304935968510623,0.0
-0.052587664435823495,-0.02848881822691181,0.16298579132387533,0.0
-0.05259168774982545,-0.028472188529037063,0.16297854935867181,0.0
-0.052605903459299025,-0.028510275901588906,0.16299973881241545,0.0
-0.052588469098623886,-0.028529319587864827,0.16299625194028042,0.0
-0.05256701142394679,-0.02854112130893723,0.16298471844014148,0.0
-0.05257774026128534,-0.028609517646970468,0.16299598371934695,0.0
-0.0525750580519507,-0.028626952007645607,0.16300322568455047,0.0
-0.05256567031927947,-0.02864089949618572,0.16302548802202796,0.0
-0.05255038172607204,-0.028658870298727785,0.16304104483616885,0.0
-0.05257344872634992,-0.02865189655445773,0.1630407766152354,0.0
-0.05258015424968651,-0.028666380484864768,0.16304614103390466,0.0
-0.05258230001715422,-0.028663966496463595,0.16307644999938606,0.0
-0.0525721076216826,-0.02863446219378259,0.16307725466218645,0.0
-0.05257559449381763,-0.02863580329844991,0.1630665258248479,0.0
-0.05259705216849472,-0.028653774100991975,0.16301234519628824,0.0
-0.05257639915661802,-0.028620782926175942,0.16298659598667573,0.0
-0.05262789757584305,-0.02862426979831097,0.16299356973094578,0.0
-0.05267456801826573,-0.028596106600297284,0.16297854935867181,0.0
-0.052699244344144386,-0.028609517646970468,0.16293831621865226,0.0
-0.05269092949520701,-0.02860817654230315,0.1629519954862589,0.0
-0.052662766297193325,-0.028592619728162256,0.1629839137773411,0.0
-0.05265418322732249,-0.028658333856860858,0.1629616514398636,0.0
-0.05261555941290372,-0.02869212969447728,0.1629418030907873,0.0
-0.05263621242478042,-0.02864760501952231,0.16295306836999277,0.0
-0.052643722610917404,-0.028668526252332478,0.1629557505793274,0.0
-0.052639431075981985,-0.028703931415549687,0.16296862518413366,0.0
-0.05264104040158277,-0.028702858531815832,0.1629978612658812,0.0
-0.05264130862251623,-0.028690788589809963,0.1629970566030808,0.0
-0.05264184506438316,-0.028706613624884324,0.1629705027306679,0.0
-0.05260724456396634,-0.028666112263931304,0.16299759304494774,0.0
-0.05260402591276478,-0.02866369827553013,0.16301127231255438,0.0
-0.05259758861036165,-0.02862507446111136,0.1630134180800221,0.0
-0.052581763575287294,-0.028641435938052646,0.16300349390548394,0.0
-0.05256567031927947,-0.028660211403395103,0.16298954641694383,0.0
-0.05255011350513858,-0.028596911263097675,0.16300537145201818,0.0
-0.05252811938859456,-0.028526369157596727,0.16302012360335869,0.0
-0.05251148969071981,-0.028519663634260135,0.16302682912669528,0.0
-0.052514171900054446,-0.02853682977400181,0.16302039182429215,0.0
-0.05254448086553584,-0.028534147564667173,0.16301207697535477,0.0
-0.05257049829608182,-0.028528514925064436,0.16301207697535477,0.0
-0.052568084307680646,-0.028573039600019407,0.16303165710349762,0.0
-0.05255333215634014,-0.028552654809076167,0.16302682912669528,0.0
-0.05252677828392724,-0.028535220448401028,0.16299920237054852,0.0
-0.05251283079538713,-0.028557751006811977,0.1630134180800221,0.0
-0.052522754969925284,-0.028563383646414715,0.16301797783589098,0.0
-0.05251873165592333,-0.028544608181072257,0.16304560459203774,0.0
-0.05251390367912098,-0.02844000201702142,0.16307269490631757,0.0
-0.05255842835407595,-0.02844000201702142,0.16306464827831366,0.0
-0.052595711063827405,-0.028488281785044884,0.16306920803418254,0.0
-0.05257183940074914,-0.028500083506117286,0.16306384361551327,0.0
-0.052554941481940926,-0.028504911482919632,0.1630568698712432,0.0
-0.05255333215634014,-0.02846467834290008,0.16304050839430193,0.0
-0.0525662067611464,-0.028508130134121196,0.16302253759175986,0.0
-0.052549040621404725,-0.028555337018410804,0.16304238594083617,0.0
-0.05253402024913076,-0.028508130134121196,0.1630458728129712,0.0
-0.052649623471453605,-0.028511080564389297,0.16302843845229606,0.0
-0.05273518594922852,-0.028535756890267956,0.16305231011537433,0.0
-0.05276227626350835,-0.028527710262264045,0.16305794275497706,0.0
-0.05273867282136355,-0.02851429921559086,0.1630206600452256,0.0
-0.052752352088970195,-0.028509471238788515,0.16300188457988316,0.0
-0.05280385050819522,-0.028495791971181867,0.16299893414961505,0.0
-0.052832550148075835,-0.028540316646136838,0.16301395452188902,0.0
-0.05286259089262377,-0.028519127192393207,0.16303165710349762,0.0
-0.05290336047451025,-0.028503033936385386,0.1630265609057618,0.0
-0.05292106305611885,-0.02847701650583941,0.1630303159988303,0.0
-0.052927232137588515,-0.028518858971459744,0.163028974894163,0.0
-0.052901751148909465,-0.028580281565222927,0.16301100409162092,0.0
-0.052887803660369354,-0.028603616786434267,0.16301019942882053,0.0
-0.052885657892901644,-0.028593960832829574,0.16300912654508667,0.0
-0.05286420021822455,-0.028600398135232703,0.16298847353320997,0.0
-0.05286071334608952,-0.028624001577377507,0.16295172726532545,0.0
-0.05284622941568248,-0.028540853088003765,0.16298632776574226,0.0
-0.05288619433476857,-0.028490695773446057,0.16300188457988316,0.0
-0.05289987360237522,-0.028456363493962706,0.16302012360335869,0.0
-0.05289182697437131,-0.02848506313384332,0.16302977955696338,0.0
-0.05287090574156114,-0.028464946563833544,0.16300617611481857,0.0
-0.052908993114112984,-0.028517517866792425,0.1629528001490593,0.0
-0.052901751148909465,-0.028492036878113376,0.16299303328907885,0.0
-0.05294305717266287,-0.028472188529037063,0.16301019942882053,0.0
-0.0529827538708155,-0.028503838599185777,0.1630067125566855,0.0
-0.0529671970566746,-0.028503033936385386,0.16300483501015126,0.0
-0.05297953521961393,-0.028534415785600637,0.1629949108356131,0.0
-0.052941179626128626,-0.028537902657735665,0.16300429856828433,0.0
-0.052917039742116895,-0.028542462413604548,0.1630075172194859,0.0
-0.052968806382275385,-0.02857250315815248,0.16296299254453092,0.0
-0.052988386510418234,-0.028588328193226837,0.16293777977678534,0.0
-0.052968001719474994,-0.02855292303000963,0.16296594297479902,0.0
-0.05295110380066678,-0.028554532355610413,0.1629721120562687,0.0
-0.052934474102792034,-0.02854568106480611,0.16293053781158182,0.0
-0.05293876563772745,-0.028519663634260135,0.16296647941666595,0.0
-0.05291355286998187,-0.028537097994935274,0.16297747647493796,0.0
-0.05287063752062768,-0.028524759831995945,0.16300912654508667,0.0
-0.05289477740463941,-0.028551045483475385,0.16300242102175008,0.0
-0.05285749469488796,-0.028570089169751307,0.16297533070747025,0.0
-0.05283737812487818,-0.028641167717119182,0.1629637972073313,0.0
-0.05281297001993299,-0.02866798981046555,0.16296942984693405,0.0
-0.05280143651979405,-0.028647336798588847,0.16295601880026087,0.0
-0.05281833443860226,-0.028653237659125048,0.16295333659092623,0.0
-0.05283657346207779,-0.028674695333802142,0.16296728407946634,0.0
-0.05280385050819522,-0.028668258031399014,0.16297908580053874,0.0
-0.05280787382219718,-0.02867308600820136,0.16298149978893992,0.0
-0.05284381542728131,-0.028694007241011527,0.16298257267267377,0.0
-0.05283094082247505,-0.02868542417114069,0.16299812948681466,0.0
-0.052807069159396786,-0.02879298076545963,0.16296272432359746,0.0
-0.05275476607737137,-0.028652432996324657,0.16301958716149176,0.0
-0.05272579821655729,-0.028657529194060467,0.16299598371934695,0.0
-0.052706486309347905,-0.028683010182739516,0.16295735990492818,0.0
-0.05269146593707394,-0.028727266636761027,0.16294582640478925,0.0
-0.05267188580893109,-0.028739604799700356,0.1629313424743822,0.0
-0.05269683035574321,-0.028722706880892145,0.1629283920441141,0.0
-0.052739209263230474,-0.02870554074115047,0.1629342929046503,0.0
-0.052718824472287235,-0.028701249206215047,0.1629291967069145,0.0
-0.05268985661147316,-0.02868408306647337,0.16297103917253483,0.0
-0.0527131918326845,-0.02865699275219354,0.16299920237054852,0.0
-0.052699244344144386,-0.028702322089948905,0.16298069512613952,0.0
-0.052690393053340084,-0.028717610683156335,0.16298149978893992,0.0
-0.05265284212265517,-0.028711173380753206,0.1629750624865368,0.0
-0.05265606077385673,-0.028665307601130913,0.16297533070747025,0.0
-0.05272713932122461,-0.028704736078350078,0.16296433364919824,0.0
-0.05275181564710327,-0.028675768217535997,0.16298284089360723,0.0
-0.05274457368189975,-0.028654578763792366,0.1630067125566855,0.0
-0.05279929075232634,-0.02869856699688041,0.16298069512613952,0.0
-0.052853471380886,-0.02874496921836963,0.16297157561440176,0.0
-0.05285615359022064,-0.028741750567168066,0.16302709734762874,0.0
-0.052849984508750975,-0.02876615867211326,0.16305231011537433,0.0
-0.0528505209506179,-0.02873772725316611,0.16305204189444086,0.0
-0.05288297568356701,-0.028711173380753206,0.16303889906870114,0.0
-0.05289182697437131,-0.028706881845817787,0.16304265416176963,0.0
-0.05287466083462963,-0.028728071299561418,0.16305445588284204,0.0
-0.05286473666009148,-0.028725657311160245,0.1630643800573802,0.0
-0.0529103342187803,-0.028729948846095664,0.1630429223827031,0.0
-0.05293071900972354,-0.028726998415827563,0.16306223428991248,0.0
-0.05292025839331846,-0.028700980985281583,0.1630606249643117,0.0
-0.052898800718641364,-0.028719756450624044,0.1630265609057618,0.0
-0.05292186771891924,-0.02874121412530114,0.16300242102175008,0.0
-0.05293796097492706,-0.02867952331060449,0.16302468335922757,0.0
-0.0529347423237255,-0.02864975078699002,0.16300537145201818,0.0
-0.052949226254132536,-0.028637949065917618,0.16304989612697315,0.0
-0.05294788514946522,-0.028608712984170077,0.16304694569670505,0.0
-0.052964514847339966,-0.02857759935588829,0.16306411183644673,0.0
-0.052947616928531754,-0.02859208328629533,0.16304158127803578,0.0
-0.05288512145103472,-0.02861193163537164,0.16302709734762874,0.0
-0.05289209519530477,-0.028578672239622144,0.1630311206616307,0.0
-0.052917844404917286,-0.02851644498305857,0.16307376779005142,0.0
-0.05293876563772745,-0.028541389529870693,0.1630761817784526,0.0
-0.052944666498263654,-0.028578135797755217,0.16308905638325885,0.0
-0.05292562281198773,-0.028553191250943095,0.16308100975525494,0.0
-0.05296397840547304,-0.028615954949373596,0.1630842284064565,0.0
-0.052970147486942704,-0.028612199856305105,0.1631153420347383,0.0
-0.053010648847895726,-0.02867308600820136,0.16310461319739974,0.0
-0.05302915609230472,-0.028698835217813874,0.16310407675553282,0.0
-0.05302325523176852,-0.028688642822342254,0.16311024583700248,0.0
-0.05298302209174896,-0.028729144183295273,0.16308261908085572,0.0
-0.05295593177746913,-0.028726998415827563,0.16306813515044868,0.0
-0.05298677718481745,-0.02874362811370231,0.16304855502230584,0.0
-0.05298945939415209,-0.028759184927843205,0.1630458728129712,0.0
-0.052970147486942704,-0.028750333637038904,0.16305633342937628,0.0
-0.052946275823864436,-0.028754893392907786,0.16305901563871092,0.0
-0.052922940602653096,-0.028724316206492927,0.1630732313481845,0.0
-0.05296826994040846,-0.028717074241289407,0.1630724266853841,0.0
-0.05298355853361589,-0.028699639880614265,0.16310032166246433,0.0
-0.05298168098708164,-0.028730753508896055,0.16308369196458958,0.0
-0.05297738945214622,-0.02877420530011717,0.16305579698750935,0.0
-0.052992141603486725,-0.028735849706631865,0.1630946890228616,0.0
-0.053050613766981815,-0.028699908101547728,0.16310085810433125,0.0
-0.053083336720864384,-0.02867684110126985,0.1631027356508655,0.0
-0.053073948988193155,-0.02873692259036572,0.16305445588284204,0.0
-0.05305731929031841,-0.028691861473543818,0.16304024017336846,0.0
-0.05307502187192701,-0.028647068577655383,0.1630378261849673,0.0
-0.05309191979073522,-0.028733167497297228,0.1630118087544213,0.0
-0.053090042244200976,-0.028721902218091754,0.16305311477817472,0.0
-0.05309969819780567,-0.028724047985559463,0.163080473313388,0.0
-0.05317506828010896,-0.028761867137177842,0.1630450681501708,0.0
-0.053184724233713655,-0.028746846764903876,0.16303219354536455,0.0
-0.05316112079156885,-0.028735313264764938,0.16306974447604947,0.0
-0.05314422287276064,-0.0287355814856984,0.1630732313481845,0.0
-0.05315790214036729,-0.028741482346234602,0.16307001269698293,0.0
-0.053180432698778236,-0.028705272520217005,0.16306384361551327,0.0
-0.053194111966384884,-0.02866798981046555,0.1630370215221669,0.0
-0.053184724233713655,-0.02869856699688041,0.1630134180800221,0.0
-0.05320349969905611,-0.028696689450346164,0.16300644433575204,0.0
-0.05320349969905611,-0.02869481190381192,0.1630265609057618,0.0
-0.05315361060543187,-0.028697494113146555,0.1630362168593665,0.0
-0.05312947072142014,-0.02869212969447728,0.16305043256884008,0.0
-0.05313832201222444,-0.028660479624328567,0.1630799368715211,0.0
-0.05312812961675282,-0.02869132503167689,0.16305043256884008,0.0
-0.05311310924447885,-0.0287208293343579,0.16303863084776768,0.0
-0.053100234639672596,-0.028726998415827563,0.16303755796403382,0.0
-0.053106671942075724,-0.02868542417114069,0.16301824605682444,0.0
-0.05312947072142014,-0.02871868356689019,0.16298364555640762,0.0
-0.053086287151132484,-0.028759184927843205,0.1629587010095955,0.0
-0.053049809104181424,-0.02868622883394108,0.16300134813801623,0.0
-0.05303344762724014,-0.028638485507784545,0.16302682912669528,0.0
-0.05301145351069612,-0.02868971570607611,0.1630096629869536,0.0
-0.052981949208015106,-0.028623196914577115,0.16303755796403382,0.0
-0.05295915042867069,-0.028650019007923484,0.16304158127803578,0.0
-0.05296826994040846,-0.028674963554735606,0.16303514397563265,0.0
-0.0529916051616198,-0.028658870298727785,0.16304694569670505,0.0
-0.0530189636968331,-0.02863231642631488,0.1630627707317794,0.0
-0.05299965178962371,-0.028657529194060467,0.1630858377320573,0.0
-0.0530034068826922,-0.028669599136066332,0.16307591355751913,0.0
-0.05303559339470785,-0.028711709822620134,0.16305794275497706,0.0
-0.0530610743833869,-0.028739604799700356,0.16304855502230584,0.0
-0.05304524934831254,-0.02874282345090192,0.16308744705765807,0.0
-0.05303800738310902,-0.028749528974238513,0.16306598938298097,0.0
-0.053049809104181424,-0.028772327753582926,0.16304238594083617,0.0
-0.0530551735228507,-0.028749528974238513,0.16304238594083617,0.0
-0.05305839217405226,-0.028782520149054545,0.1630260244638949,0.0
-0.05305034554604835,-0.028790566777058456,0.16301127231255438,0.0
-0.05304659045297986,-0.02880102739346354,0.16298874175414343,0.0
-0.0530248645573693,-0.028819534637872533,0.16295333659092623,0.0
-0.053009844185095335,-0.028864327533760968,0.16293938910238612,0.0
-0.05295673644026952,-0.028906438220314766,0.16296057855612975,0.0
-0.05291891728865114,-0.028917167057653313,0.1629616514398636,0.0
-0.05294520294013058,-0.02886969195243024,0.162980963347073,0.0
-0.052981949208015106,-0.028884712324704208,0.16299088752161114,0.0
-0.052968806382275385,-0.028937551848596553,0.16298927819601036,0.0
-0.05295110380066678,-0.028940502278864653,0.16297398960280293,0.0
-0.052949226254132536,-0.028885248766571135,0.16293992554425304,0.0
-0.05295110380066678,-0.02884769783588622,0.1629742578237364,0.0
-0.052945471161064045,-0.028887930975905772,0.16301368630095556,0.0
-0.05289611850930673,-0.028875861033899906,0.16299759304494774,0.0
-0.05289692317210712,-0.028876665696700297,0.16296647941666595,0.0
-0.05291355286998187,-0.02883321390547918,0.16298471844014148,0.0
-0.0529103342187803,-0.028858963115091694,0.16299222862627846,0.0
-0.05291355286998187,-0.028865668638428287,0.162962456102664,0.0
-0.052902555811709856,-0.02884689317308583,0.16292892848598103,0.0
-0.05287975703236544,-0.0288286541496103,0.1629321471371826,0.0
-0.052828258613140416,-0.028790566777058456,0.1629372433349184,0.0
-0.05283442769461008,-0.02882007107973946,0.16292007719517673,0.0
-0.05284596119474902,-0.028822485068140634,0.16293536578838416,0.0
-0.05286795531129304,-0.02877849683505259,0.16295548235839394,0.0
-0.0528955820674398,-0.028757039160375496,0.16296326076546438,0.0
-0.05289772783490751,-0.028763744683712088,0.16296567475386556,0.0
-0.05290711556757874,-0.028767231555847116,0.16297479426560332,0.0
-0.052920794835185386,-0.028783056590921473,0.16297479426560332,0.0
-0.052905506241977956,-0.0288375054404146,0.1629696980678675,0.0
-0.05287734304396427,-0.02884179697535002,0.16300027525428237,0.0
-0.052892899858105163,-0.02882355795187449,0.16297908580053874,0.0
-0.05289611850930673,-0.028821680405340243,0.16293912088145265,0.0
-0.05291596685838304,-0.028805855370265886,0.1629557505793274,0.0
-0.05289504562557287,-0.02873772725316611,0.16297881757960528,0.0
-0.05289719139304058,-0.02871519669475516,0.16297989046333913,0.0
-0.0529103342187803,-0.028683010182739516,0.16296728407946634,0.0
-0.05292347704452002,-0.028706077183017396,0.16297398960280293,0.0
-0.05291945373051807,-0.02871278270635399,0.16299356973094578,0.0
-0.0529376927539936,-0.02871278270635399,0.16301234519628824,0.0
-0.05295164024253371,-0.028703931415549687,0.16300215280081662,0.0
-0.05297926699868047,-0.028700176322481192,0.16300054347521584,0.0
-0.052992141603486725,-0.02874067768343421,0.16297908580053874,0.0
-0.05298731362668438,-0.02877420530011717,0.16292570983477947,0.0
-0.05293635164932628,-0.028744700997436166,0.16295709168399472,0.0
-0.052958613986803765,-0.028718147125023262,0.1629890099750769,0.0
-0.052981949208015106,-0.028669867356999796,0.16298123156800645,0.0
-0.052950567358799855,-0.02870929583421896,0.16296942984693405,0.0
-0.05293554698652589,-0.02870929583421896,0.1629350975674507,0.0
-0.0529103342187803,-0.028692934357277673,0.16293563400931763,0.0
-0.052906042683844884,-0.02871224626448706,0.16292141829984405,0.0
-0.05289048586970399,-0.028747651427704267,0.16292356406731176,0.0
-0.052912748207181476,-0.028773132416383317,0.16289405976463076,0.0
-0.052892899858105163,-0.02875945314877667,0.16287206564808673,0.0
-0.05287278328809539,-0.0287776921722522,0.16288762246222763,0.0
-0.05284676585754941,-0.028799149846929294,0.16290908013690472,0.0
-0.052844888311015165,-0.028814706661070187,0.16291900431144288,0.0
-0.05288002525329891,-0.028810146905201305,0.16291927253237634,0.0
-0.05286124978795645,-0.028752479404506613,0.1629418030907873,0.0
-0.052897459613974046,-0.02875087007890583,0.1629839137773411,0.0
-0.05297068392880963,-0.0288286541496103,0.16295038616065813,0.0
-0.05297417080094466,-0.028808001137733595,0.16295601880026087,0.0
-0.05295968687053762,-0.02875650271850857,0.1630067125566855,0.0
-0.052927232137588515,-0.028740945904367675,0.16297559892840371,0.0
-0.052937424533060135,-0.02874282345090192,0.16296701585853288,0.0
-0.05291650330024997,-0.028754088730107395,0.16295601880026087,0.0
-0.05290014182330868,-0.028777155730385272,0.16293187891624913,0.0
-0.052880561695165834,-0.028828922370543762,0.16291256700903975,0.0
-0.05283952389234589,-0.02883616433574728,0.16292222296264444,0.0
-0.0528593722414222,-0.02880987868426784,0.16292088185797712,0.0
-0.052876270160230415,-0.028841528754416555,0.1628900364506288,0.0
-0.05283925567141243,-0.0288286541496103,0.16291256700903975,0.0
-0.05281565222926762,-0.028866473301228678,0.16291122590437243,0.0
-0.05279768142672556,-0.028864863975627895,0.16288869534596148,0.0
-0.052794730996457456,-0.028854135138289348,0.16288654957849377,0.0
-0.05281243357806606,-0.02889570938297622,0.16288815890409455,0.0
-0.052824503520071925,-0.02887907968510147,0.16293643867211802,0.0
-0.05282933149687427,-0.0288463567312189,0.1629860595448088,0.0
-0.05279151234525589,-0.028771791311715998,0.162991960405345,0.0
-0.05276603135657684,-0.028783324811854936,0.16299061930067768,0.0
-0.052741355030698184,-0.028812560893602478,0.1629860595448088,0.0
-0.052754497856437904,-0.028832677463612254,0.16300832188228628,0.0
-0.052796876763925166,-0.02879003033519153,0.16305016434790662,0.0
-0.052818602659535724,-0.028744432776502703,0.16306035674337824,0.0
-0.05283657346207779,-0.028748992532371585,0.1630724266853841,0.0
-0.05283496413647701,-0.028754625171974323,0.16307779110405338,0.0
-0.05283201370620891,-0.028791907881725774,0.16304721391763852,0.0
-0.05282852683407388,-0.028795394753860802,0.16304104483616885,0.0
-0.052831745485275444,-0.02883670077761421,0.16304909146417276,0.0
-0.05282503996193885,-0.028850380045220857,0.16306706226671483,0.0
-0.05284596119474902,-0.028851184708021248,0.16303058421976377,0.0
-0.0529044333582441,-0.028801295614397003,0.1630665258248479,0.0
-0.052905506241977956,-0.02881497488200365,0.16304775035950544,0.0
-0.052905506241977956,-0.028869155510563314,0.16305633342937628,0.0
-0.05291596685838304,-0.028878006801367616,0.16308396018552304,0.0
-0.05296826994040846,-0.02886218176629326,0.163080473313388,0.0
-0.05297202503347695,-0.028908583987782475,0.16308369196458958,0.0
-0.052917039742116895,-0.028946939581267782,0.16309281147632734,0.0
-0.052915698637449576,-0.028942648046332363,0.1630858377320573,0.0
-0.052927232137588515,-0.028941843383531972,0.16307081735978332,0.0
-0.05289933716050829,-0.028926554790324542,0.16307671822031952,0.0
-0.052849179845950583,-0.028956059093005547,0.1630643800573802,0.0
-0.052840596776079746,-0.028948012465001637,0.16306169784804556,0.0
-0.05286420021822455,-0.028915825952985995,0.16303836262683422,0.0
-0.052888608323169745,-0.028930578104326497,0.16305499232470896,0.0
-0.052893704520905555,-0.028967056151277558,0.16305043256884008,0.0
-0.05291167532344762,-0.028987709163154265,0.16304426348737042,0.0
-0.052907652009445666,-0.028967592593144485,0.16300778544041936,0.0
-0.05286580954382533,-0.02891260730178443,0.16303755796403382,0.0
-0.052845692973815556,-0.028888199196839236,0.16305874741777746,0.0
-0.0528446200900817,-0.0288884674177727,0.16302495158016103,0.0
-0.05286768709035958,-0.02885145292895471,0.1629839137773411,0.0
-0.05287144218342807,-0.02881792531227175,0.16302092826615908,0.0
-0.052891558753437845,-0.028886053429371526,0.16300993120788707,0.0
-0.052910602439713766,-0.02884474740561812,0.16298793709134304,0.0
-0.052926427474788124,-0.02886513219656136,0.16292570983477947,0.0
-0.05292106305611885,-0.02885359869642242,0.16293563400931763,0.0
-0.05291247998624801,-0.028909120429649403,0.1629039839391689,0.0
-0.05286956463689382,-0.028886053429371526,0.16290586148570316,0.0
-0.05288538967196818,-0.028858963115091694,0.16291256700903975,0.0
-0.052920794835185386,-0.028851721149888175,0.1628996924042335,0.0
-0.0529406431842617,-0.028863522870960577,0.16284980331060925,0.0
-0.05293554698652589,-0.02887103305709756,0.1628626779154155,0.0
-0.05297282969627734,-0.028835627893880354,0.1628656283456836,0.0
-0.05297658478934583,-0.028859767777892086,0.16283853803140377,0.0
-0.05294144784706209,-0.028856280905757058,0.16283451471740182,0.0
-0.05292240416078617,-0.028841528754416555,0.16282700453126484,0.0
-0.052917844404917286,-0.028773132416383317,0.16281734857766014,0.0
-0.05293340121905818,-0.028740141241567284,0.16281359348459165,0.0
-0.05295405423093488,-0.028776619288518344,0.16280635151938813,0.0
-0.052929377905056224,-0.028748456090504658,0.16281091127525701,0.0
-0.052935278765592425,-0.0287747417419841,0.16280232820538618,0.0
-0.052911138881580694,-0.028724316206492927,0.16277792010044098,0.0
-0.05291167532344762,-0.028777155730385272,0.16276692304216897,0.0
-0.05290792023037913,-0.02880531892839896,0.1627800658679087,0.0
-0.05293715631212667,-0.028807196474933204,0.16280259642631964,0.0
-0.0529376927539936,-0.028842065196283483,0.16281708035672668,0.0
-0.05296317374267265,-0.028832945684545717,0.16280420575192042,0.0
-0.05294788514946522,-0.02885493980108974,0.16279937777511808,0.0
-0.05296397840547304,-0.028863522870960577,0.16279347691458187,0.0
-0.053007430196694155,-0.02887988434790186,0.16279723200765037,0.0
-0.05302379167363545,-0.028877202138567225,0.16281225237992433,0.0
-0.05299670135935561,-0.028866205080295214,0.16282083544979517,0.0
-0.053004479766426055,-0.02891609417391946,0.16277818832137445,0.0
-0.05300501620829298,-0.02887693391763376,0.1627843574028441,0.0
-0.05303157008070589,-0.028883639440970353,0.1627800658679087,0.0
-0.05302540099923623,-0.02894398915099968,0.1627800658679087,0.0
-0.053007430196694155,-0.02892279969725605,0.16276129040256623,0.0
-0.053024328115502374,-0.02896356927914253,0.16273178609988523,0.0
-0.05304524934831254,-0.028940770499798117,0.16278060230977562,0.0
-0.053007430196694155,-0.028917971720453704,0.16279240403084802,0.0
-0.052973902580011195,-0.0289482806859351,0.16278489384471104,0.0
-0.05299267804535365,-0.028942916267265827,0.16272937211148406,0.0
-0.053008771301361474,-0.028864595754694432,0.1627350047510868,0.0
-0.053003138661758736,-0.02880826935866706,0.16273151787895176,0.0
-0.05298731362668438,-0.0288434063009508,0.16271166952987545,0.0
-0.05298221742894857,-0.028815243102937114,0.1627202525997463,0.0
-0.05302030480150042,-0.02881926641693907,0.1626971855994684,0.0
-0.0530063573129603,-0.028854135138289348,0.16268457921559562,0.0
-0.05300957596416187,-0.02880263671906432,0.16273580941388718,0.0
-0.05300179755709142,-0.0287865434630565,0.16272400769281478,0.0
-0.0529886547313517,-0.02875435695104086,0.16273607763482065,0.0
-0.05295324956813449,-0.028773937079183708,0.16273527297202026,0.0
-0.05291221176531455,-0.02883616433574728,0.1627253487974821,0.0
-0.052900946486109074,-0.028836968998547673,0.1627527073326954,0.0
-0.052960759754271475,-0.02880531892839896,0.1627342000882864,0.0
-0.052993482708154044,-0.028840992312549628,0.16271113308800852,0.0
-0.05297551190561198,-0.028838578324148455,0.16273741873948797,0.0
-0.052993482708154044,-0.028820875742539852,0.16271596106481087,0.0
-0.053040421371510195,-0.028830799917078008,0.1626950398320007,0.0
-0.05305195487164913,-0.02882355795187449,0.16269021185519836,0.0
-0.05305034554604835,-0.02888122545256918,0.16268350633186177,0.0
-0.05304578579017947,-0.028859499556958622,0.16272588523934903,0.0
-0.0530846778255317,-0.028825435498408734,0.16272508057654864,0.0
-0.053093529116336004,-0.028816852428537897,0.1627017453553373,0.0
-0.053048467999514105,-0.028776619288518344,0.16269316228546646,0.0
-0.053017890813099246,-0.02878573880025611,0.16270120891347037,0.0
-0.05304176247617751,-0.02876106247437745,0.16269557627386763,0.0
-0.05311713255848081,-0.028739336578766893,0.16270496400653886,0.0
-0.05310345329087416,-0.028724316206492927,0.16271703394854473,0.0
-0.05304498112737908,-0.028732094613563373,0.16273017677428445,0.0
-0.05303183830163936,-0.02869776233408002,0.16272937211148406,0.0
-0.053060806162453435,-0.02867308600820136,0.16273151787895176,0.0
-0.05307207144165891,-0.028638485507784545,0.16274036916975607,0.0
-0.053057855732185334,-0.02868327840367298,0.1627379551813549,0.0
-0.05304793155764718,-0.028593960832829574,0.16275833997229813,0.0
-0.0530522230925826,-0.028578672239622144,0.16273473653015333,0.0
-0.053078240523128574,-0.028612468077238568,0.1627253487974821,0.0
-0.05305302775538299,-0.028652432996324657,0.16271408351827663,0.0
-0.05302245056896813,-0.028672817787267896,0.16269369872733339,0.0
-0.05299080049881941,-0.028595301937496893,0.162703891122805,0.0
-0.052983290312682424,-0.028644922810187674,0.16267841013412596,0.0
-0.052954858893735274,-0.028661284287128958,0.16270496400653886,0.0
-0.05292159949798578,-0.028676304659402924,0.16268377455279523,0.0
-0.05291382109091533,-0.028709564055152424,0.16264756472677763,0.0
-0.052915698637449576,-0.028720024671557508,0.1626360312266387,0.0
-0.05290818845131259,-0.028781983707187618,0.1626255706102336,0.0
-0.05287090574156114,-0.028767767997714043,0.16263415368010445,0.0
-0.052881366357966225,-0.02872163399715829,0.16269369872733339,0.0
-0.052860176904222594,-0.028674695333802142,0.16267572792479132,0.0
-0.05279714498485863,-0.028629097775113316,0.1626714363898559,0.0
-0.05284810696221673,-0.02866503938019745,0.16265936644785003,0.0
-0.05284676585754941,-0.028666380484864768,0.16266499908745277,0.0
-0.05289209519530477,-0.028636876182183763,0.1626824334481279,0.0
-0.05292025839331846,-0.028629097775113316,0.16268162878532752,0.0
-0.0529103342187803,-0.0286395583915184,0.16269557627386763,0.0
-0.05290067826517561,-0.02864384992645382,0.16267492326199093,0.0
-0.05288807188130282,-0.028615686728440132,0.16266526730838624,0.0
-0.05289316807903863,-0.02864170415898611,0.1626869932039968,0.0
-0.05292106305611885,-0.028673622450068287,0.16268645676212987,0.0
-0.05294681226573136,-0.028694007241011527,0.1626735821573236,0.0
-0.05296210085893879,-0.028637949065917618,0.1626920894017326,0.0
-0.05297551190561198,-0.02859798414683153,0.16269101651799875,0.0
-0.05298731362668438,-0.028643045263653428,0.16267277749452322,0.0
-0.05299026405695248,-0.028654310542858902,0.16267841013412596,0.0
-0.052978194114946614,-0.028599861693365775,0.16271032842520813,0.0
-0.053034520510973994,-0.028603348565500803,0.1626995995878696,0.0
-0.053049272662314496,-0.028623733356444043,0.1627105966461416,0.0
-0.053042567138977904,-0.028609517646970468,0.16273285898361908,0.0
-0.053094333779136395,-0.02861836893777477,0.16268967541333143,0.0
-0.05312759317488589,-0.028593424390962647,0.162692894064533,0.0
-0.0531149867910131,-0.028582159111757172,0.1627025500181377,0.0
-0.05310211218620684,-0.02860308034456734,0.1627076462158735,0.0
-0.05313349403542209,-0.02861622317030706,0.16268431099466216,0.0
-0.053127056733018964,-0.028640631275252255,0.1626456871802434,0.0
-0.053090042244200976,-0.028630975321647562,0.16266607197118663,0.0
-0.053008234859494546,-0.02864170415898611,0.1626832381109283,0.0
-0.05300474798735952,-0.028666112263931304,0.1626574889013158,0.0
-0.05303639805750824,-0.028604957891101585,0.16263924987784026,0.0
-0.05303586161564131,-0.028546753948539966,0.162663389761852,0.0
-0.053064024813655,-0.028603616786434267,0.16265185626171305,0.0
-0.05307046211605813,-0.028603348565500803,0.1626529291454469,0.0
-0.053106671942075724,-0.02853092891346561,0.16267787369225903,0.0
-0.053122765198083545,-0.028541657750804156,0.16269933136693612,0.0
-0.05308601893019902,-0.028581622669890245,0.1626714363898559,0.0
-0.05302271878990159,-0.02850705725038734,0.16266070755251735,0.0
-0.053064561255521926,-0.02846548300570047,0.1626499787151788,0.0
-0.05307663119752779,-0.028489891110645666,0.16261645109849585,0.0
-0.05304739511578025,-0.028449926191559578,0.1626419320871749,0.0
-0.05306938923232427,-0.028431418947150584,0.16264890583144495,0.0
-0.05308548248833209,-0.028416398574876614,0.16263790877317294,0.0
-0.05309406555820293,-0.02840808372593924,0.16265856178504964,0.0
-0.05311874188408159,-0.028477552947706337,0.1626655355293197,0.0
-0.05312812961675282,-0.028464141901033153,0.1626588300059831,0.0
-0.05313832201222444,-0.028401109981669184,0.16265480669198115,0.0
-0.053138858454091366,-0.028404865074737676,0.16263790877317294,0.0
-0.05312732495395243,-0.0284748707383717,0.16262181551716512,0.0
-0.05309621132567064,-0.02848291736637561,0.16266285331998506,0.0
-0.0530905786860679,-0.028521809401727844,0.1626545384710477,0.0
-0.053099429976872205,-0.028545144622939184,0.16263469012197138,0.0
-0.053054905301917234,-0.028547558611340357,0.16263871343597333,0.0
-0.05303693449937517,-0.028585377762958736,0.16264890583144495,0.0
-0.053060001499653044,-0.028606567216702367,0.16263388545917098,0.0
-0.05309674776753757,-0.028588864635093764,0.16262986214516903,0.0
-0.05314985551236338,-0.028619441821508624,0.16259150655168372,0.0
-0.053164339442770416,-0.028652432996324657,0.16259365231915143,0.0
-0.0531297389423536,-0.02860898120510354,0.16265802534318272,0.0
-0.05313617624475673,-0.02867442711286868,0.1626360312266387,0.0
-0.053186065338380974,-0.02870500429928354,0.16261913330783048,0.0
-0.053187674663981756,-0.028714123811021307,0.16263629944757216,0.0
-0.05322442093186628,-0.028735313264764938,0.16263764055223948,0.0
-0.05327162781615589,-0.028746846764903876,0.16263469012197138,0.0
-0.05325499811828114,-0.028771791311715998,0.16265266092451344,0.0
-0.053250974804279184,-0.02881336555640287,0.16267787369225903,0.0
-0.053256875664815385,-0.028856280905757058,0.16269048007613182,0.0
-0.0532796744441598,-0.028865400417494823,0.1626714363898559,0.0
-0.05327913800229287,-0.02886674152216214,0.16266741307585394,0.0
-0.05326143542068427,-0.02886379109189404,0.16269048007613182,0.0
-0.053222543385332034,-0.02887183771989795,0.16270147713440383,0.0
-0.053239977746007174,-0.028932723871794207,0.16268431099466216,0.0
-0.053241587071607956,-0.028936210743929235,0.16269396694826685,0.0
-0.053248829036811475,-0.028962496395408675,0.16268565209932948,0.0
-0.0532523159089465,-0.02895471798833823,0.16269369872733339,0.0
-0.053270018490555106,-0.02900621640756326,0.162692894064533,0.0
-0.05328718463029678,-0.028973493453680686,0.16270442756467193,0.0
-0.05329201260709913,-0.028979662535150354,0.16271032842520813,0.0
-0.05330461899097192,-0.02899977910516013,0.1627156928438774,0.0
-0.05331347028177622,-0.02900326597729516,0.16274144205348992,0.0
-0.05335933606139851,-0.029045913105715884,0.16268752964586372,0.0
-0.0533601407241989,-0.029010239721565214,0.162692894064533,0.0
-0.05336443225913432,-0.028980467197950745,0.16270791443680696,0.0
-0.05338401238727717,-0.02900112020982745,0.1627215937044136,0.0
-0.053367650910335886,-0.028966787930344094,0.1627637043909674,0.0
-0.05334672967752572,-0.02896571504661024,0.16280420575192042,0.0
-0.0533306364215179,-0.02899173247715622,0.1627733603445721,0.0
-0.05330756942124002,-0.028995755791158175,0.16277148279803785,0.0
-0.053274310025490525,-0.028988245605021192,0.16275968107696545,0.0
-0.0532767240138917,-0.02896651970941063,0.16276048573976584,0.0
-0.053288257514030636,-0.0289785896514165,0.16275512132109657,0.0
-0.05335638563113041,-0.02904054868704661,0.1627363458557541,0.0
-0.05336362759633393,-0.028981808302618064,0.16276343617003394,0.0
-0.05337516109647287,-0.028977516767682645,0.16273607763482065,0.0
-0.053385085271011025,-0.028974298116481077,0.16271166952987545,0.0
-0.05341324846902471,-0.02890375601098013,0.1627460018093588,0.0
-0.05341673534115974,-0.028872910603631806,0.16271032842520813,0.0
-0.053409225155022756,-0.028861108882559404,0.16270791443680696,0.0
-0.05336711446846896,-0.02884850249868661,0.1627540484373627,0.0
-0.053358799619531584,-0.028864863975627895,0.16272937211148406,0.0
-0.0533845488291441,-0.028834823231079963,0.16271032842520813,0.0
-0.053394473003682254,-0.02882811770774337,0.16271488818107702,0.0
-0.05342987816689946,-0.028826240161209125,0.16273259076268562,0.0
-0.05342558663196404,-0.028722170439025217,0.16277470144923942,0.0
-0.05341807644582706,-0.028686765275808008,0.16275968107696545,0.0
-0.053467429097584375,-0.028634998635649517,0.16275887641416506,0.0
-0.05351731819120862,-0.02868837460140879,0.16273285898361908,0.0
-0.05350658935387007,-0.028652969438191584,0.16273473653015333,0.0
-0.05351731819120862,-0.028607103658569295,0.16272964033241752,0.0
-0.05353984874961957,-0.02860093457709963,0.16273580941388718,0.0
-0.05354574961015577,-0.028580013344289463,0.16273875984415528,0.0
-0.05353046101694834,-0.028590205739761083,0.16273661407668757,0.0
-0.053526437702946385,-0.02860603077483544,0.162733395425486,0.0
-0.053534484330950295,-0.028580281565222927,0.1627320543208187,0.0
-0.053565329738298625,-0.02858779175135991,0.16272052082067975,0.0
-0.05354306740082113,-0.028597447704964602,0.16272722634401635,0.0
-0.053527242365746776,-0.028633389310048735,0.16271542462294394,0.0
-0.05352670592387985,-0.02861917360057516,0.16270362290187154,0.0
-0.0535218779470775,-0.028625342682044825,0.16270871909960735,0.0
-0.053501761377067726,-0.02863580329844991,0.16270201357627076,0.0
-0.05350498002826929,-0.0286905203688765,0.1627105966461416,0.0
-0.05351865929587594,-0.028687301717674935,0.16272266658814746,0.0
-0.0535248283773456,-0.028677109322203315,0.16272803100681674,0.0
-0.05352536481921253,-0.028685155950207226,0.16274841579775998,0.0
-0.053478426155856386,-0.02865994318246164,0.16274787935589305,0.0
-0.053469574865052084,-0.028669599136066332,0.16273902806508875,0.0
-0.05342317264356287,-0.02867952331060449,0.1627350047510868,0.0
-0.05340868871315583,-0.0286425088217865,0.16269530805293417,0.0
-0.05351141733067242,-0.028568748065083988,0.16268887075053104,0.0
-0.05347413462092097,-0.028521809401727844,0.16272883566961713,0.0
-0.05348593634199337,-0.028574917146553653,0.16269048007613182,0.0
-0.05349103253972918,-0.02861488206563974,0.16266875418052126,0.0
-0.05349961560960002,-0.02853897554146952,0.16270603689027271,0.0
-0.05355728311029471,-0.028526369157596727,0.16270281823907115,0.0
-0.053604758215517787,-0.02853092891346561,0.16267572792479132,0.0
-0.05360717220391896,-0.028510275901588906,0.16265802534318272,0.0
-0.05359349293631231,-0.028531197134399073,0.1626588300059831,0.0
-0.05359617514564695,-0.02853817087866913,0.16268940719239797,0.0
-0.05362970276232991,-0.028519127192393207,0.1626891389714645,0.0
-0.053659207065010914,-0.028457168156763097,0.16272266658814746,0.0
-0.05362997098326337,-0.028419885447011642,0.16275082978616115,0.0
-0.05356345219176438,-0.028419885447011642,0.16274412426282456,0.0
-0.05356559795923209,-0.028414789249275832,0.1627481475768265,0.0
-0.053577667901237955,-0.028424981644747452,0.16274787935589305,0.0
-0.05356398863363131,-0.02843705158675332,0.1627586081932316,0.0
-0.05357015771510097,-0.028476480063972482,0.16273527297202026,0.0
-0.053555673784693926,-0.02848935466877874,0.16273527297202026,0.0
-0.05358035011057259,-0.02850410682011924,0.16268672498306333,0.0
-0.05355004114509119,-0.028530660692532146,0.1626883343086641,0.0
-0.05352456015641214,-0.028591278623494937,0.16267975123879327,0.0
-0.05352321905174482,-0.028619441821508624,0.16269369872733339,0.0
-0.05356130642429667,-0.02855855566961237,0.1627156928438774,0.0
-0.053542530958954206,-0.0285228822854617,0.16273956450695568,0.0
-0.05352268260987789,-0.02856231076268086,0.1627253487974821,0.0
-0.05354521316828884,-0.028596911263097675,0.16271810683227858,0.0
-0.0535883967385765,-0.028566334076682815,0.16272695812308288,0.0
-0.053606903982985496,-0.028564188309215106,0.1627143517392101,0.0
-0.05361012263418706,-0.028601471018966557,0.16270871909960735,0.0
-0.053582764098973765,-0.02858993751882762,0.16272481235561517,0.0
-0.05354011697055303,-0.02857840401868868,0.16274063739068953,0.0
-0.05354870004042387,-0.028608712984170077,0.1627430513790907,0.0
-0.05353904408681918,-0.028599325251498848,0.16277470144923942,0.0
-0.05353689831935147,-0.028611395193504714,0.16277175101897132,0.0
-0.053573376366302536,-0.028622660472710188,0.16279428157738227,0.0
-0.05357149881976829,-0.028652969438191584,0.162799914216985,0.0
-0.05355325979629275,-0.028664771159263986,0.1628036693100535,0.0
-0.05356425685456477,-0.028647873240455774,0.16280527863565428,0.0
-0.053591615389778066,-0.028589669297894155,0.16282968674059947,0.0
-0.053567475505766335,-0.028593156170029183,0.1628428295663392,0.0
-0.053543872063621524,-0.028658333856860858,0.1628251269847306,0.0
-0.05352456015641214,-0.028672817787267896,0.16281520281019243,0.0
-0.05352590126107946,-0.028646532135788456,0.16283049140339986,0.0
-0.053510344446938564,-0.028698030555013482,0.1628243223219302,0.0
-0.05350658935387007,-0.028758380265042814,0.16280849728685584,0.0
-0.05349961560960002,-0.028766963334913652,0.16279454979831573,0.0
-0.053462332899848565,-0.028791371439858847,0.16278918537964646,0.0
-0.0534620646789151,-0.028816584207604433,0.1627682641468363,0.0
-0.05345401805091119,-0.028860304219759013,0.16275807175136467,0.0
-0.05343872945770376,-0.028910193313383258,0.1627800658679087,0.0
-0.053428000620365214,-0.028947207802201246,0.16278382096097718,0.0
-0.053411102701557,-0.02894398915099968,0.1627674594840359,0.0
-0.05336282293353354,-0.028958741302340184,0.16279857311231768,0.0
-0.05331695715391125,-0.02899173247715622,0.16280125532165232,0.0
-0.05331615249111086,-0.02903920758237929,0.16283746514766992,0.0
-0.05330461899097192,-0.02905288684998594,0.16283371005460143,0.0
-0.053306496537506166,-0.029055569059320576,0.16283800158953685,0.0
-0.05330005923510304,-0.029065493233858732,0.162858922822347,0.0
-0.05325338879268036,-0.0290982161877413,0.1628693834387521,0.0
-0.05333787838672142,-0.02909446109467281,0.16289835129956617,0.0
-0.05337328354993862,-0.029132012025357725,0.1628559723920789,0.0
-0.05328933039776449,-0.02917600025844577,0.16288869534596148,0.0
-0.05325848499041617,-0.0291942392819213,0.16289137755529612,0.0
-0.053335464398320244,-0.029230985549805823,0.1628361240430026,0.0
-0.05336228649166661,-0.029176536700312696,0.16287930761329025,0.0
-0.0533247355609817,-0.029178682467780406,0.16290881191597126,0.0
-0.05334404746819108,-0.029213551189130684,0.16289701019489886,0.0
-0.053383744166343707,-0.029254320771017167,0.16288091693889103,0.0
-0.05342719595756482,-0.0292932128063694,0.1628862813575603,0.0
-0.053438193015836834,-0.02927282801542616,0.16294260775358768,0.0
-0.053474671062787894,-0.029300186550639457,0.16293697511398494,0.0
-0.053476816830255604,-0.029232594875406605,0.16297586714933718,0.0
-0.05350766223760393,-0.029193434619120908,0.1629839137773411,0.0
-0.05354870004042387,-0.02924466481741247,0.1629578963467951,0.0
-0.053514904202807446,-0.02923366775914046,0.1629801586842726,0.0
-0.053502297818934653,-0.02920148124712482,0.1630000070333489,0.0
-0.053530192796014876,-0.029195580386588618,0.16299035107974422,0.0
-0.05357525391283678,-0.02920952787512873,0.16298337733547416,0.0
-0.053527242365746776,-0.029239032177809734,0.16296647941666595,0.0
-0.053454286271844655,-0.02925888052688605,0.16296326076546438,0.0
-0.05346930664411862,-0.02926317206182147,0.16297372138186947,0.0
-0.05349317830719689,-0.02924895635234789,0.162962456102664,0.0
-0.05348298591172527,-0.029282752189964317,0.16293643867211802,0.0
-0.05346394222544935,-0.02928945771330091,0.1629165903230417,0.0
-0.05348727744666069,-0.029318962015981914,0.16292007719517673,0.0
-0.05351088088880549,-0.029268536480490742,0.16293777977678534,0.0
-0.053497201621198844,-0.029302332318107166,0.16291042124157204,0.0
-0.053470379527852475,-0.029328349748653143,0.16290022884610042,0.0
-0.053477621493055995,-0.029330495516120852,0.1629165903230417,0.0
-0.05349746984213231,-0.02934337012092711,0.16290344749730198,0.0
-0.05348432701639259,-0.029345247667461355,0.16288601313662684,0.0
-0.053462332899848565,-0.02933022729518739,0.16287072454341942,0.0
-0.05347654860932214,-0.029388163016815544,0.1628618732526151,0.0
-0.0534620646789151,-0.02938279859814627,0.16292356406731176,0.0
-0.05346260112078203,-0.029416862656696158,0.16290210639263467,0.0
-0.05346340578358242,-0.02942356818003275,0.1628862813575603,0.0
-0.05342826884129868,-0.02938413970281359,0.16290612970663662,0.0
-0.05341324846902471,-0.029383335040013198,0.16291229878810629,0.0
-0.05343953412050415,-0.02942222707536543,0.16287716184582254,0.0
-0.05346099179518125,-0.0294039880518899,0.16286455546194975,0.0
-0.05343953412050415,-0.029413644005494594,0.16289030467156226,0.0
-0.05345884602771354,-0.029415789772962303,0.16287984405515718,0.0
-0.05344945829504231,-0.029349002760529846,0.1628988877414331,0.0
-0.0534473125275746,-0.02933693281852398,0.1629106894625055,0.0
-0.053443289213572644,-0.029298845445972138,0.1629270509394468,0.0
-0.053471184190652866,-0.029260489852486832,0.16291471277650746,0.0
-0.053447848969441526,-0.029265854271156105,0.16292678271851332,0.0
-0.0533993009804846,-0.029342297237193254,0.16289781485769925,0.0
-0.0533845488291441,-0.029377165958543533,0.16288815890409455,0.0
-0.05338186661980946,-0.029255661875684486,0.16292168652077751,0.0
-0.05333278218898561,-0.029256466538484877,0.16290022884610042,0.0
-0.05333465973551985,-0.029260489852486832,0.1629018381717012,0.0
-0.05338347594541024,-0.029222938921801913,0.1629136398927736,0.0
-0.05333305040991907,-0.02921462407286454,0.16290666614850355,0.0
-0.05336496870100125,-0.02925807586408566,0.1628833309272922,0.0
-0.05333868304952181,-0.029245469480212862,0.16290505682290277,0.0
-0.05329657236296801,-0.02924010506154359,0.1629241005091787,0.0
-0.053301400339770356,-0.02927416912009348,0.1629114941253059,0.0
-0.05330515543283885,-0.02927202335262577,0.16287367497368752,0.0
-0.05329067150243181,-0.029282752189964317,0.16287287031088712,0.0
-0.05326089897881734,-0.02927068224795845,0.16289352332276383,0.0
-0.05331454316551008,-0.029271755131692306,0.16292222296264444,0.0
-0.053337073723921026,-0.029250029236081745,0.1628819898226249,0.0
-0.05333680550298756,-0.029279533538762753,0.16286670122941746,0.0
-0.05335611741019695,-0.029302868759974093,0.1628760889620887,0.0
-0.05336872379406974,-0.02930474630650834,0.16285999570608087,0.0
-0.05336818735220281,-0.029276046666627725,0.1628862813575603,0.0
-0.05342505019009711,-0.029258344085019122,0.162914444555574,0.0
-0.053441948108905325,-0.029212746526330293,0.16289057289249573,0.0
-0.05345884602771354,-0.029180828235248115,0.16287635718302215,0.0
-0.05346877020225169,-0.029092583548138564,0.16293322002091645,0.0
-0.05348164480705795,-0.02909955729240862,0.1629675523003998,0.0
-0.053438997678637225,-0.029037330035845046,0.16299732482401427,0.0
-0.05342317264356287,-0.029068711885060296,0.1629578963467951,0.0
-0.05341324846902471,-0.029035184268377336,0.16294233953265422,0.0
-0.053444898539173426,-0.02899253713995661,0.16294260775358768,0.0
-0.053476816830255604,-0.028987709163154265,0.1629401937651865,0.0
-0.05346474688824974,-0.02896437394194292,0.16296326076546438,0.0
-0.053482717690791805,-0.029008898616897896,0.1629801586842726,0.0
-0.05353394788908337,-0.028997365116758957,0.16300912654508667,0.0
-0.05352965635414795,-0.02896571504661024,0.16303272998723148,0.0
-0.05353636187748454,-0.028984758732886164,0.16299544727748003,0.0
-0.053566134401099016,-0.028961959953541748,0.16298874175414343,0.0
-0.05356345219176438,-0.028897855150443928,0.16298471844014148,0.0
-0.05359054250604421,-0.028911266197117112,0.16298069512613952,0.0
-0.05360153956431622,-0.028936210743929235,0.16299061930067768,0.0
-0.05355647844749432,-0.028903219569113202,0.16296996628880098,0.0
-0.05356398863363131,-0.028877202138567225,0.16293670689305148,0.0
-0.053568280168566726,-0.028835896114813818,0.16297694003307103,0.0
-0.05354118985428689,-0.028802100277197394,0.16298257267267377,0.0
-0.053526437702946385,-0.028790566777058456,0.16299464261467964,0.0
-0.053604758215517787,-0.02874631032303695,0.16299652016121388,0.0
-0.05362889809952952,-0.028701249206215047,0.16299222862627846,0.0
-0.05360556287831818,-0.028781715486254154,0.1629941061728127,0.0
-0.05356559795923209,-0.028818729975072142,0.16299678838214735,0.0
-0.05357096237790136,-0.028810951568001696,0.16293965732331958,0.0
-0.053580618331506055,-0.02884555206841851,0.16295601880026087,0.0
-0.053564525075498234,-0.028908047545915548,0.16299061930067768,0.0
-0.05353394788908337,-0.028875861033899906,0.163021464708026,0.0
-0.05354789537762348,-0.028879347906034934,0.16300349390548394,0.0
-0.05358759207577611,-0.028886589871238454,0.16296352898639785,0.0
-0.053603953552717395,-0.028868350847762923,0.16298632776574226,0.0
-0.05359349293631231,-0.02883884654508192,0.16297452604466986,0.0
-0.053584909866441474,-0.028816047765737506,0.16293348824184992,0.0
-0.05355755133122817,-0.028808805800533986,0.16294824039319042,0.0
-0.053552723354425825,-0.028861377103492868,0.1629498497187912,0.0
-0.053533679668149904,-0.028848770719620075,0.16295521413746047,0.0
-0.053535288993750686,-0.028894904720175828,0.16292490517197908,0.0
-0.05356935305230058,-0.028914484848318676,0.1628811851598245,0.0
-0.053551918691625434,-0.028902683127246274,0.16287555252022176,0.0
-0.053503102481735045,-0.028926018348457615,0.16289996062516696,0.0
-0.053457236702112755,-0.028933260313661134,0.16290237461356813,0.0
-0.053461528237048174,-0.028920385708854877,0.16294528996292232,0.0
-0.053449994736909236,-0.02892279969725605,0.16295521413746047,0.0
-0.05342263620169594,-0.028945866697533927,0.1629262462766464,0.0
-0.05341244380622432,-0.028956863755805938,0.1628996924042335,0.0
-0.05342478196916365,-0.028945330255667,0.16290344749730198,0.0
-0.053438997678637225,-0.028946671360334318,0.16285784993861316,0.0
-0.05340788405035544,-0.028954986209271692,0.16286884699688517,0.0
-0.053416467120226276,-0.02894398915099968,0.16289164577622958,0.0
-0.053444093876373035,-0.02893889295326387,0.16288279448542528,0.0
-0.05344570320197382,-0.028908315766849012,0.16288467203195953,0.0
-0.05342344086449633,-0.028914216627385213,0.1629106894625055,0.0
-0.05343524258556873,-0.028866473301228678,0.1629498497187912,0.0
-0.053452140504376945,-0.028870764836164096,0.162943948858255,0.0
-0.05344382565543957,-0.028889808522440018,0.16292973314878142,0.0
-0.05341217558529086,-0.028941575162598508,0.1629136398927736,0.0
-0.053351557654328065,-0.029008630395964432,0.16289647375303193,0.0
-0.05334458391005801,-0.02895042645340281,0.1629418030907873,0.0
-0.05345079939970963,-0.028956059093005547,0.1629291967069145,0.0
-0.05342719595756482,-0.028963032837275603,0.16289701019489886,0.0
-0.05334968010779382,-0.028941306941665045,0.16286911521781863,0.0
-0.05332205335164706,-0.02892789589499186,0.16286670122941746,0.0
-0.05333492795645332,-0.028897050487643537,0.16285865460141355,0.0
-0.053317225374844714,-0.028871569498964487,0.16289057289249573,0.0
-0.053261167199750804,-0.028883102999103426,0.16289942418330003,0.0
-0.05322093405973125,-0.02888712631310538,0.1629128352299732,0.0
-0.0532287124668017,-0.028902683127246274,0.16292222296264444,0.0
-0.053242928176275274,-0.02895927774420711,0.16290800725317087,0.0
-0.05321288743172734,-0.028967592593144485,0.1629359022302511,0.0
-0.05320886411772539,-0.02889570938297622,0.1629431441954546,0.0
-0.05325446167641421,-0.028913680185518285,0.162932951799983,0.0
-0.05327189603708935,-0.02891609417391946,0.16290371571823545,0.0
-0.05323193111800326,-0.028931919208993816,0.16289432798556422,0.0
-0.05320537724559036,-0.02892199503445566,0.16292088185797712,0.0
-0.053214496757328124,-0.028928432336858788,0.1628900364506288,0.0
-0.0532434646181422,-0.028924409022856833,0.1629010335089008,0.0
-0.053218251850396615,-0.028905097115647448,0.16294046198611997,0.0
-0.05320537724559036,-0.028893027173641582,0.16295414125372662,0.0
-0.05320645012932421,-0.028875592812966443,0.16296996628880098,0.0
-0.05323085823426941,-0.028877202138567225,0.16298847353320997,0.0
-0.053226298478400526,-0.028878543243234543,0.16298337733547416,0.0
-0.05319035687331639,-0.02882141218440678,0.16299437439374617,0.0
-0.05322737136213438,-0.02874496921836963,0.16297613537027064,0.0
-0.05330381432817153,-0.028753552288240468,0.1629342929046503,0.0
-0.05333278218898561,-0.028768572660514434,0.16288681779942724,0.0
-0.05330247322350421,-0.028755698055708177,0.16287072454341942,0.0
-0.053308642304973876,-0.028786007021189573,0.16286026392701433,0.0
-0.05332205335164706,-0.02880692825399974,0.16286884699688517,0.0
-0.05331481138644354,-0.02879593119572773,0.1629232958463783,0.0
-0.053310788072441585,-0.0288286541496103,0.1629460946257227,0.0
-0.0533003274560365,-0.028881493673502644,0.1629477039513235,0.0
-0.053379989073275215,-0.028900000917911638,0.16294582640478925,0.0
-0.05340144674795231,-0.028900000917911638,0.16294448530012193,0.0
-0.053382939503543315,-0.028923067918189514,0.16292892848598103,0.0
-0.05340707938755505,-0.028883102999103426,0.16290612970663662,0.0
-0.05341244380622432,-0.028856280905757058,0.1628819898226249,0.0
-0.053390181468746835,-0.02890965687151633,0.16287877117142333,0.0
-0.053390181468746835,-0.02896571504661024,0.1628841355900926,0.0
-0.05333305040991907,-0.028950694674336273,0.16289432798556422,0.0
-0.053267068060287005,-0.028900000917911638,0.16290612970663662,0.0
-0.05322737136213438,-0.028931114546193425,0.1628988877414331,0.0
-0.05320779123399153,-0.028981271860751136,0.16287877117142333,0.0
-0.05321717896666276,-0.02902016389610337,0.16285811815954662,0.0
-0.0532405141878741,-0.0289874409422208,0.16286804233408478,0.0
-0.053289598618697955,-0.02900326597729516,0.1628605321479478,0.0
-0.053307032979373094,-0.029037330035845046,0.162847925764075,0.0
-0.05330166856070382,-0.029079440722398844,0.16286482368288321,0.0
-0.053323930898181306,-0.0290325020590427,0.16287179742715327,0.0
-0.05332419911911477,-0.028986904500353874,0.16288520847382645,0.0
-0.05331856647951203,-0.02900702107036365,0.16291605388117478,0.0
-0.053299791014169574,-0.029019895675169907,0.16295038616065813,0.0
-0.05329710880483494,-0.029003802419162086,0.16294126664892036,0.0
-0.053309983409641194,-0.028981808302618064,0.16292436873011215,0.0
-0.05327565113015784,-0.029011849047165996,0.16292490517197908,0.0
-0.053248024374011084,-0.029029283407841135,0.16294046198611997,0.0
-0.053272164258022815,-0.028992268919023147,0.162932951799983,0.0
-0.05325070658334572,-0.028960887069807893,0.162925441613846,0.0
-0.053240782408807565,-0.028960350627940966,0.16293348824184992,0.0
-0.053224152710932816,-0.0289844905119527,0.16295172726532545,0.0
-0.053181773803445555,-0.028957936639539793,0.162973453160936,0.0
-0.05325070658334572,-0.028899732696978174,0.162980963347073,0.0
-0.053272164258022815,-0.02896866547687834,0.162962456102664,0.0
-0.053236490873872146,-0.029045376663848956,0.16294716750945656,0.0
-0.05324775615307762,-0.029095533978406665,0.16291524921837439,0.0
-0.05326304474628505,-0.02899253713995661,0.16295923745146243,0.0
-0.053226298478400526,-0.028942916267265827,0.16299544727748003,0.0
-0.053128666058619746,-0.02898288118635192,0.16297854935867181,0.0
-0.05310398973274109,-0.02906763900132644,0.16295467769559355,0.0
-0.053081190953396674,-0.028996560453958566,0.16299088752161114,0.0
-0.05307448543006008,-0.028954986209271692,0.16298793709134304,0.0
-0.053047663336713714,-0.02902230966357108,0.16296728407946634,0.0
-0.05303639805750824,-0.028997096895825494,0.16300563967295165,0.0
-0.0530758265347274,-0.028987709163154265,0.16296406542826478,0.0
-0.05312142409341623,-0.029005143523829404,0.16294931327692427,0.0
-0.053141540663426,-0.029048863535983984,0.16294448530012193,0.0
-0.053083336720864384,-0.029061469919856777,0.16291632210210824,0.0
-0.05307207144165891,-0.029094997536539737,0.16290612970663662,0.0
-0.053074753650993546,-0.02906763900132644,0.16291980897424327,0.0
-0.05304900444138103,-0.02909741152494091,0.16289432798556422,0.0
-0.05305115020884874,-0.029139790432428172,0.16290344749730198,0.0
-0.0530699256741912,-0.02915346970003482,0.1628508761943431,0.0
-0.05307073033699159,-0.029135498897492753,0.16283263717086757,0.0
-0.053053564197249915,-0.029113236560015267,0.1628618732526151,0.0
-0.05304793155764718,-0.029084805141068117,0.16289352332276383,0.0
-0.053014940382831145,-0.02911350478094873,0.16291176234623936,0.0
-0.05300206577802488,-0.029130402699756943,0.1629232958463783,0.0
-0.05294600760293097,-0.02916956295604264,0.16293322002091645,0.0
-0.052891558753437845,-0.0291491781650994,0.162943948858255,0.0
-0.05288458500916779,-0.029173318049111132,0.16295333659092623,0.0
-0.05289048586970399,-0.029223743584602304,0.1629114941253059,0.0
-0.052910602439713766,-0.02919209351445359,0.16293938910238612,0.0
-0.05290067826517561,-0.02919075240978627,0.1629705027306679,0.0
-0.05291301642811494,-0.029263440282754932,0.16291042124157204,0.0
-0.05290228759077639,-0.029288921271433982,0.1628996924042335,0.0
-0.05286929641596036,-0.029290530597034764,0.1629270509394468,0.0
-0.05288592611383511,-0.029361877365336103,0.16292517339291254,0.0
-0.05284676585754941,-0.029394868540152136,0.16294153486985383,0.0
-0.052862322671690304,-0.02942276351723236,0.16296138321893014,0.0
-0.05298892295228516,-0.029435638122038615,0.1629300013697149,0.0
-0.052965855952007285,-0.02947104328525582,0.16293456112558377,0.0
-0.05293983852146131,-0.029520932378880066,0.16290076528796735,0.0
-0.05292052661425192,-0.029458973343249956,0.16293187891624913,0.0
-0.05292186771891924,-0.029470506843388894,0.16288520847382645,0.0
-0.05295190846346717,-0.029546681588492586,0.16289701019489886,0.0
-0.05298060810334779,-0.029599789333318395,0.16290291105543506,0.0
-0.052892363416238236,-0.029556069321163815,0.16292758738131372,0.0
-0.05287278328809539,-0.029544535821024877,0.16295521413746047,0.0
-0.05289209519530477,-0.029579940984242083,0.16294046198611997,0.0
-0.052855885369287176,-0.029575917670240127,0.16293992554425304,0.0
-0.052849984508750975,-0.0296204423451951,0.16289486442743115,0.0
-0.05287144218342807,-0.029650751310676494,0.16286536012475014,0.0
-0.05289102231157092,-0.029656652171212695,0.16286160503168165,0.0
-0.05286339555542416,-0.029597375344917222,0.1628988877414331,0.0
-0.05289826427677444,-0.029655042845611913,0.16288842712502802,0.0
-0.05296397840547304,-0.02964672799667454,0.16289352332276383,0.0
-0.05298087632428125,-0.029621515228928953,0.16291176234623936,0.0
-0.05297873055681354,-0.0296891069041618,0.16289701019489886,0.0
-0.052973097917210804,-0.029744896858322246,0.16288762246222763,0.0
-0.0529671970566746,-0.029681596718024818,0.16292383228824522,0.0
-0.05298463141734974,-0.029629561856932864,0.1629565552421278,0.0
-0.05300206577802488,-0.02967676874122247,0.1629721120562687,0.0
-0.052994287370954435,-0.02975240704445923,0.16298632776574226,0.0
-0.053006625533893764,-0.029781911347140234,0.16298498666107494,0.0
-0.05301038062696226,-0.029778424475005207,0.16299732482401427,0.0
-0.05300206577802488,-0.029821608045292863,0.16297479426560332,0.0
-0.05295110380066678,-0.0297969317194142,0.16298874175414343,0.0
-0.0529376927539936,-0.029815438963823198,0.16297398960280293,0.0
-0.05291596685838304,-0.02982938645236331,0.16296808874226673,0.0
-0.052962905521739184,-0.029821071603425935,0.16298713242854265,0.0
-0.052952713126267564,-0.029850307685173477,0.16296487009106517,0.0
-0.052894509183705946,-0.029806587673018897,0.1629490450559908,0.0
-0.05286473666009148,-0.029803637242750796,0.16296782052133327,0.0
-0.05281404290366684,-0.02981785295222437,0.16299088752161114,0.0
-0.05281109247339874,-0.029866132720247834,0.16302575624296142,0.0
-0.052837646345811645,-0.029933187953613754,0.16300778544041936,0.0
-0.05282799039220695,-0.029907170523067777,0.16302924311509645,0.0
-0.05285561714835371,-0.02989215015079381,0.1630362168593665,0.0
-0.05286205445075684,-0.029980394837903362,0.16301154053348785,0.0
-0.05284515653194863,-0.03001821398952174,0.1630260244638949,0.0
-0.05286366377635762,-0.029990319012441518,0.1630407766152354,0.0
-0.05287466083462963,-0.029966983791230178,0.16305365122004165,0.0
-0.05283067260154159,-0.02998817324497381,0.1630348757546992,0.0
-0.052789634798721646,-0.030060056455142075,0.16301234519628824,0.0
-0.05278695258938701,-0.030092779409024648,0.16297989046333913,0.0
-0.05281109247339874,-0.03000587582658241,0.16301529562655634,0.0
-0.052783733938185445,-0.030013922454586322,0.16301610028935673,0.0
-0.05275905761230679,-0.03001445889645325,0.16300993120788707,0.0
-0.05277971062418349,-0.03000292539631431,0.16302495158016103,0.0
-0.05280358228726176,-0.03002760172219297,0.16301422274282248,0.0
-0.052799827194193266,-0.03003430724552956,0.16299678838214735,0.0
-0.0528210166479369,-0.030100021374228167,0.162991960405345,0.0
-0.052868223532226505,-0.030115041746502133,0.16297989046333913,0.0
-0.05286366377635762,-0.030053619152738947,0.1630088583241532,0.0
-0.05277810129858271,-0.030024919512858333,0.16301663673122366,0.0
-0.05275771650763947,-0.03006703019941213,0.16298874175414343,0.0
-0.05276871356591148,-0.03003779411766459,0.162991960405345,0.0
-0.05276013049604064,-0.029997560977645037,0.1630185142777579,0.0
-0.05270916851868254,-0.029998902082312356,0.16302682912669528,0.0
-0.052656865436657124,-0.030017141105787886,0.16302763378949567,0.0
-0.052703535879079805,-0.030051473385271237,0.16304479992923734,0.0
-0.05277836951951617,-0.030050668722470846,0.16300403034735086,0.0
-0.05275369319363751,-0.0300369894548642,0.16300724899855243,0.0
-0.05276013049604064,-0.03006407976914403,0.16298740064947612,0.0
-0.05276013049604064,-0.030080441246085318,0.16297828113773835,0.0
-0.05276951822871187,-0.030075881490216436,0.16298927819601036,0.0
-0.05281162891526567,-0.030125502362907217,0.16297318494000254,0.0
-0.05284944806688405,-0.0300850010019542,0.16299678838214735,0.0
-0.05285990868328913,-0.030086073885688056,0.16298954641694383,0.0
-0.05284944806688405,-0.03007051707154716,0.16301529562655634,0.0
-0.052858031136754885,-0.03008339167635342,0.16302280581269332,0.0
-0.05284596119474902,-0.030097607385826994,0.16302709734762874,0.0
-0.05282933149687427,-0.030054423815539338,0.16303246176629801,0.0
-0.05285400782275293,-0.03009948493236124,0.16299142396347807,0.0
-0.052858031136754885,-0.030120406165171407,0.16298203623080684,0.0
-0.05281699333393494,-0.030081782350752637,0.16300698077761896,0.0
-0.052804923391929076,-0.030051205164337774,0.16304319060363656,0.0
-0.05276951822871187,-0.030067566641279058,0.1630177096149575,0.0
-0.05275288853083712,-0.03001606822205403,0.16306598938298097,0.0
-0.05275396141457098,-0.030008826256850512,0.16306116140617863,0.0
-0.052742964356298966,-0.03004664540846889,0.16304694569670505,0.0
-0.052783733938185445,-0.03005093694340431,0.16303568041749958,0.0
-0.05279338989179014,-0.030036184792063807,0.16303970373150153,0.0
-0.05276147160070796,-0.030035916571130344,0.16305579698750935,0.0
-0.0527102414024164,-0.03002974748966068,0.1631035403136659,0.0
-0.05278024706605042,-0.03006407976914403,0.163165499349296,0.0
-0.05287975703236544,-0.029995415210177328,0.16312982596514533,0.0
-0.05295324956813449,-0.029961619372560904,0.16311265982540366,0.0
-0.0529044333582441,-0.029973421093633306,0.16313089884887919,0.0
-0.052857226473954494,-0.02993882059321649,0.16312017001154064,0.0
-0.05283737812487818,-0.029948744767754647,0.16313948191875002,0.0
-0.0528593722414222,-0.029984418151905317,0.16313948191875002,0.0
-0.05284140143888014,-0.029974225756433697,0.1631587938259594,0.0
-0.05283013615967466,-0.02998817324497381,0.16315316118635667,0.0
-0.05281457934553377,-0.029931846848946436,0.1631410912443508,0.0
-0.052811360694332204,-0.029885981069324146,0.1631507471979555,0.0
-0.05280009541512673,-0.029907975185868168,0.16313760437221578,0.0
-0.05281082425246528,-0.029957864279492413,0.16313089884887919,0.0
-0.052840596776079746,-0.029936943046682245,0.16313733615128231,0.0
-0.0528867307766355,-0.029911998499870123,0.16312446154647606,0.0
-0.052892363416238236,-0.029901269662531576,0.16312580265114338,0.0
-0.05286875997409343,-0.029909048069602023,0.16313492216288114,0.0
-0.052858835799555276,-0.02989644168572923,0.16314752854675393,0.0
-0.052862322671690304,-0.02988329885998951,0.1631587938259594,0.0
-0.05286124978795645,-0.029912266720803587,0.16317864217503572,0.0
-0.05286795531129304,-0.02994606255842001,0.1631566480584917,0.0
-0.05285910402048874,-0.029902074325331967,0.16316737689583025,0.0
-0.05284649763661595,-0.029847089033971912,0.16317086376796527,0.0
-0.05283523235741047,-0.02986157296437895,0.16317676462850148,0.0
-0.05276656779844377,-0.029885712848390682,0.16318507947743885,0.0
-0.05272660287935768,-0.029905561197466995,0.1631832019309046,0.0
-0.05269602569294282,-0.02988034842972141,0.1631832019309046,0.0
-0.05270916851868254,-0.029894564139194984,0.16316737689583025,0.0
-0.05269146593707394,-0.029858354313177387,0.16320331850091438,0.0
-0.05272660287935768,-0.029868546708649007,0.16320224561718052,0.0
-0.05275288853083712,-0.029867742045848616,0.1632017091753136,0.0
-0.052763349147242206,-0.029866132720247834,0.1631663040120964,0.0
-0.052757448286706005,-0.029899928557864257,0.16316496290742907,0.0
-0.052773541542713825,-0.0298841035227899,0.16321887531505527,0.0
-0.052774882647381144,-0.029894832360128448,0.16322370329185762,0.0
-0.05273947748416394,-0.029847357254905376,0.16322477617559147,0.0
-0.052704340541880196,-0.029872033580784035,0.1632009045125132,0.0
-0.0526563289947902,-0.029858890755044314,0.16321619310572064,0.0
-0.05266625316932835,-0.02981919405689169,0.16322128930345645,0.0
-0.05268932016960623,-0.029826704243028673,0.16321002402425097,0.0
-0.05272740754215807,-0.029873374685451353,0.1631705955470318,0.0
-0.052692002378940866,-0.029864791615580515,0.16322692194305918,0.0
-0.052662766297193325,-0.029920849790674425,0.1632518664898713,0.0
-0.05267537268106612,-0.029901001441598112,0.1632282630477265,0.0
-0.0527338448445612,-0.029899660336930794,0.16322182574532337,0.0
-0.052705681646547514,-0.029895905243862302,0.1632623271062764,0.0
-0.052654719669189415,-0.02987605689478599,0.163232018140795,0.0
-0.05264801414585282,-0.029888663278658783,0.1631773010703684,0.0
-0.05261502297103679,-0.02992192267440828,0.16318186082623728,0.0
-0.05261636407570411,-0.029906902302134313,0.16320278205904745,0.0
-0.05264345438998394,-0.029910657395202805,0.16319607653571086,0.0
-0.05268341930907003,-0.029948476546821184,0.16319339432637622,0.0
-0.052717483367619916,-0.029945794337486547,0.16320197739624706,0.0
-0.052716678704819525,-0.029915217151071687,0.16319473543104354,0.0
-0.05271775158855338,-0.029911462058003196,0.16319527187291047,0.0
-0.052739209263230474,-0.02990958451146895,0.16318293370997114,0.0
-0.05275691184483908,-0.02993587016294839,0.16314886965142125,0.0
-0.05272633465842422,-0.02991387604640437,0.16317622818663455,0.0
-0.05267751844853383,-0.029931042186146044,0.1631869570239731,0.0
-0.05269790323947707,-0.02993291973268029,0.1631869570239731,0.0
-0.05276093515884103,-0.029933187953613754,0.1631832019309046,0.0
-0.05273652705389584,-0.029914412488271296,0.16318507947743885,0.0
-0.05269495280920897,-0.02992487310467638,0.1631773010703684,0.0
-0.05268690618120506,-0.02990743874400124,0.16316657223302986,0.0
-0.052705681646547514,-0.029896978127596157,0.16318266548903768,0.0
-0.05270997318148293,-0.02992782353494448,0.16319419898917661,0.0
-0.05267832311133422,-0.029884371743723364,0.16321967997785566,0.0
-0.05265874298319137,-0.029860500080645096,0.16323282280359538,0.0
-0.052660620529725616,-0.029872838243584426,0.16322933593146036,0.0
-0.05273813637949662,-0.029869887813316325,0.16325991311787522,0.0
-0.05269227059987433,-0.02994606255842001,0.16324489274560125,0.0
-0.05265820654132444,-0.029903951871866213,0.16326205888534293,0.0
-0.05270407232094673,-0.02988839505772532,0.16323872366413159,0.0
-0.052716678704819525,-0.029916558255739006,0.16321458378011985,0.0
