-0.007314384855554683,0.04408988882182703,0.19426732591001103,0.0
-0.007296145832079152,0.04413334061304815,0.19429548910802472,0.0
-0.007322699704492057,0.04404295015847089,0.19432713917817343,0.0
-0.007335037867431386,0.043951755041093235,0.19437810115553153,0.0
-0.00734844891410457,0.04393619822695234,0.19442155294675265,0.0
-0.007362932844511609,0.04392359184307955,0.19441216521408142,0.0
-0.00732001749515742,0.043995475053247815,0.19443469577249237,0.0
-0.007310897983419654,0.04393888043628698,0.19447144204037692,0.0
-0.007365615053846246,0.043854927284112846,0.1943901710975374,0.0
-0.007366956158513564,0.043942367308422006,0.19432097009670377,0.0
-0.007363737507312,0.04391930030814413,0.1945623689368211,0.0
-0.007359714193310045,0.04392895626174882,0.19462727840271932,0.0
-0.007349790018771889,0.04393485712228502,0.1945328646341401,0.0
-0.007367492600380492,0.04395524191322826,0.194481902656782,0.0
-0.007376612112118257,0.04392976092454921,0.19451328450599725,0.0
-0.007380367205186748,0.04390186594746899,0.1945572727390853,0.0
-0.007394582914660325,0.04388657735426156,0.19454573923894636,0.0
-0.00740370242639809,0.04400808143712061,0.19450872475012837,0.0
-0.007429988077877531,0.04394344019215586,0.19453018242480546,0.0
-0.007429988077877531,0.04390830324987212,0.19462942417018703,0.0
-0.007407457519466582,0.043932174912950386,0.194692456089551,0.0
-0.00744232624081686,0.04390454815680363,0.1946836047987467,0.0
-0.007421941449873621,0.04397616314603843,0.1946575873682007,0.0
-0.007424623659208257,0.043960874552831,0.19467716749634356,0.0
-0.007396192240261107,0.04398581909964312,0.19468119081034552,0.0
-0.007423550775474403,0.04393512534321849,0.19466912086833965,0.0
-0.007434011391879486,0.043933516017617705,0.19468038614754513,0.0
-0.007429988077877531,0.043939416878153906,0.19471069511302652,0.0
-0.007373393460916693,0.044020151379126474,0.19471123155489345,0.0
-0.0074077257404000455,0.0439040117149367,0.19470184382222222,0.0
-0.007450104647887308,0.043875312075056086,0.19473268922957054,0.0
-0.007415504147470492,0.04401720094885837,0.19476863083465468,0.0
-0.007426769426675967,0.04388014005185843,0.19478445586972903,0.0
-0.0074262329848090395,0.04392278718027916,0.19478150543946093,0.0
-0.007427305868542894,0.043922518959345694,0.19475468334611457,0.0
-0.007403434205464627,0.04395658301789558,0.1947876745209306,0.0
-0.007362932844511609,0.04389596508693279,0.19485794840549808,0.0
-0.007407189298533118,0.04387638495878994,0.19484614668442568,0.0
-0.007457614834024291,0.04392144607561184,0.19475870666011652,0.0
-0.007434816054679877,0.0438981108544005,0.19480779109094037,0.0
-0.007381976530787532,0.043953900808560945,0.19491749345272702,0.0
-0.007371515914382447,0.0439490728317586,0.1949271494063317,0.0
-0.0074058481938658,0.04391795920347681,0.19495799481368004,0.0
-0.007409335066000828,0.04391152190107368,0.19494002401113797,0.0
-0.007409335066000828,0.04389757441253357,0.19497998893022406,0.0
-0.0073943146937268615,0.043883358703059996,0.19500520169796964,0.0
-0.007412017275335464,0.043838834028105025,0.19494243799953914,0.0
-0.007403165984531163,0.043833737830369215,0.19493278204593445,0.0
-0.007369638367848201,0.04386699722611871,0.1950277322563806,0.0
-0.007376612112118257,0.04380342886488782,0.19505482257066042,0.0
-0.0073833176354548505,0.04382435009769799,0.1950446301751888,0.0
-0.007414967705603565,0.04375890418993285,0.1950202220702436,0.0
-0.0074128219381358555,0.04376721903887022,0.19505267680319271,0.0
-0.007342011611701442,0.04384258912117352,0.19510712565268584,0.0
-0.0073575684258423354,0.04377794787620877,0.19509612859441383,0.0
-0.007353813332773844,0.0437932364694162,0.19508835018734338,0.0
-0.007335574309298314,0.04374012872459039,0.19508486331520836,0.0
-0.007293195401811051,0.04374281093392503,0.195135557071633,0.0
-0.0072811254598051855,0.04385251329571167,0.19518544616525724,0.0
-0.007288635645942169,0.04381201193475866,0.19517069401391673,0.0
-0.007280589017938258,0.04378063008554341,0.19522353353780908,0.0
-0.007310897983419654,0.043694531165901565,0.19524686875902042,0.0
-0.007257522017660382,0.04380289242302089,0.19524686875902042,0.0
-0.007247866064055689,0.04384044335370581,0.195194565676995,0.0
-0.00723123636618094,0.04384848998170972,0.19518303217685606,0.0
-0.0072108515752377,0.04383749292343771,0.19519590678166232,0.0
-0.007218361761374683,0.043817644574361395,0.19526001158476014,0.0
-0.007204950714701499,0.04384339378397391,0.19522514286340986,0.0
-0.007187784574959824,0.043889796005463125,0.19523613992168187,0.0
-0.007181883714423623,0.04388282226119307,0.19526054802662707,0.0
-0.007173300644552784,0.04389435576133201,0.19528227392223763,0.0
-0.007187784574959824,0.04396328854123217,0.19528120103850377,0.0
-0.007225335505644739,0.04396248387843178,0.19526376667782863,0.0
-0.007232041028981331,0.04389650152879972,0.19530507270158204,0.0
-0.007213533784572337,0.043967043634300665,0.19536837284187947,0.0
-0.007211656238038091,0.04402256536752765,0.19534476939973466,0.0
-0.007215411331106583,0.044010763646455245,0.19530963245745092,0.0
-0.007193685435496025,0.04400834965805407,0.19534718338813584,0.0
-0.00717517819108703,0.04398340511124195,0.195357107562674,0.0
-0.007165790458415801,0.044061725623813344,0.19532438460879142,0.0
-0.007178128621355131,0.04404536414687206,0.1953112417830517,0.0
-0.00713145817893245,0.044086401949692,0.19543274586591075,0.0
-0.007113755597323847,0.04407004047275072,0.19539975469109472,0.0
-0.007149965423341444,0.04398903775084469,0.19530373159691472,0.0
-0.007148087876807198,0.04401746916979184,0.19537239615588142,0.0
-0.007107854736787646,0.04415184785745714,0.19540994708656634,0.0
-0.00710812295772111,0.04410383631036714,0.19538500253975422,0.0
-0.007117242469458875,0.04405046034460787,0.1953732008186818,0.0
-0.007127166643997031,0.044035439972333904,0.19532116595758986,0.0
-0.007115633143858093,0.04411885668264111,0.19535227958587165,0.0
-0.007112146271723065,0.044046437030605914,0.19535978977200863,0.0
-0.007099539887850271,0.04403785396073508,0.19536649529534522,0.0
-0.007091761480779824,0.044047241693406305,0.19534476939973466,0.0
-0.007087469945844405,0.04412797619437887,0.19533699099266422,0.0
-0.007069499143302339,0.04410973717090334,0.19537802879548416,0.0
-0.007047505026758317,0.044137632147983566,0.19538178388855265,0.0
-0.007058502085030328,0.04415345718305792,0.19534691516720237,0.0
-0.007078618655040104,0.04417196442746692,0.19533806387639807,0.0
-0.007115096701991165,0.04412797619437887,0.19537212793494796,0.0
-0.0070839830737093774,0.04413280417118122,0.19541262929590097,0.0
-0.0070906885970459695,0.044146215217854404,0.19536837284187947,0.0
-0.007127166643997031,0.044169550439065744,0.19527342263143332,0.0
-0.007102222097184908,0.04415667583425949,0.19533699099266422,0.0
-0.007079423317840495,0.04411027361277027,0.1954257721216407,0.0
-0.007094980131981388,0.04415184785745714,0.19537373726054874,0.0
-0.007123143329995076,0.044159358043594124,0.19533538166706343,0.0
-0.007114023818257311,0.04416418602039647,0.19534611050440198,0.0
-0.007075131782905076,0.04419825007894636,0.19541128819123366,0.0
-0.007070572027036193,0.044182693264805464,0.19543006365657611,0.0
-0.007088006387711333,0.044162308473862225,0.19537829701641762,0.0
-0.007082105527175132,0.044200127625480604,0.19539573137709276,0.0
-0.007082910189975523,0.0441588216017272,0.19541262929590097,0.0
-0.007106513632120327,0.0441167109151734,0.19542174880763874,0.0
-0.007091225038912897,0.04416981865999921,0.19541370217963483,0.0
-0.00707325423637083,0.044181352160138146,0.1953887576328227,0.0
-0.00706520760836692,0.04411992956637496,0.1954080695400321,0.0
-0.007086128841177087,0.04404187727473703,0.19542604034257416,0.0
-0.007110268725188819,0.044034098867666585,0.19540538733069746,0.0
-0.00707030380610273,0.044152920741190996,0.19541048352843327,0.0
-0.0070654758293003835,0.04415613939239256,0.19540109579576204,0.0
-0.007067353375834629,0.044095253240496304,0.19538392965602036,0.0
-0.00703972661968787,0.04408318329849044,0.19548692649447041,0.0
-0.007048041468625244,0.044031953100198876,0.1954560810871221,0.0
-0.007035166863818987,0.04403597641420083,0.19546359127325907,0.0
-0.007027656677682004,0.044021760704727256,0.19548129385486768,0.0
-0.00704991901515949,0.04399788904164899,0.19545393531965438,0.0
-0.0070922979226467515,0.043995475053247815,0.19542469923790684,0.0
-0.00709363902731407,0.04399440216951396,0.19544615691258393,0.0
-0.007066548713034238,0.0439697258436353,0.19549041336660544,0.0
-0.007010490537940328,0.04407138157741804,0.1954973871108755,0.0
-0.007053137666361054,0.044020956041926865,0.1954582268545898,0.0
-0.007050723677959881,0.0440118365301891,0.19546815102912796,0.0
-0.007033289317284741,0.04406145740287988,0.19550650662261326,0.0
-0.007018268945010775,0.044058238751678316,0.1954965824480751,0.0
-0.007037312631286696,0.04406923580995033,0.19545634930805555,0.0
-0.007020682933411948,0.04402283358846111,0.1954375738427131,0.0
-0.007002175689002954,0.04397777247163921,0.19542335813323952,0.0
-0.0069831320027270325,0.04397911357630653,0.19540833776096556,0.0
-0.006991446851664407,0.0438951604241324,0.1954139704005683,0.0
-0.006992787956331725,0.04381952212089564,0.195453130656854,0.0
-0.0070070036658053,0.043827836969833014,0.1953946584933589,0.0
-0.007012904526341501,0.043908035028938655,0.19536381308601058,0.0
-0.0069941290609990435,0.04391661809880949,0.19535952155107517,0.0
-0.006973744270055804,0.043915276994142174,0.19540324156322975,0.0
-0.00700914943327301,0.04388604091239463,0.19537588302801645,0.0
-0.007046432143024462,0.04390347527306977,0.19531151000398517,0.0
-0.007036507968486305,0.0440059356696529,0.1953364545507973,0.0
-0.006980181572458932,0.04402122426286033,0.19537373726054874,0.0
-0.006997079491267144,0.04393700288975273,0.19535227958587165,0.0
-0.006999761700601781,0.04398394155310888,0.1953246528297249,0.0
-0.0070083447704726185,0.04397321271577033,0.1952994400619793,0.0
-0.007009954096073401,0.043967043634300665,0.1953074866899832,0.0
-0.007008612991406082,0.04400191235565094,0.19530346337598126,0.0
-0.007027924898615467,0.04398930597177815,0.1952691310964979,0.0
-0.007015050293809211,0.04403731751886815,0.19526296201502824,0.0
-0.006996006607533289,0.0439970843788486,0.19533833209733154,0.0
-0.006991446851664407,0.04399091529737893,0.19534557406253505,0.0
-0.007042408829022507,0.04395443725042787,0.19533162657399494,0.0
-0.007055283433828764,0.04396758007616759,0.19532062951572293,0.0
-0.007019073607811166,0.04401693272792491,0.1953445011788012,0.0
-0.007013172747274965,0.04396650719243374,0.19534101430666617,0.0
-0.007044018154623289,0.043951755041093235,0.19534557406253505,0.0
-0.0070603796315645735,0.04399735259978206,0.19534932915560355,0.0
-0.007047236805824853,0.044007813216187144,0.19535442535333936,0.0
-0.007015050293809211,0.04403275776299927,0.19538258855135304,0.0
-0.007026315573014685,0.04400915432085446,0.19537346903961528,0.0
-0.007058770305963791,0.044001375913784016,0.19535496179520628,0.0
-0.007053137666361054,0.04399064707644547,0.1954131657377679,0.0
-0.007048309689558708,0.04397240805296994,0.1954515213312532,0.0
-0.007043213491822898,0.04399279284391318,0.19543945138924734,0.0
-0.0070662804921007745,0.04402041960005994,0.1954131657377679,0.0
-0.007067889817701557,0.04395926522723022,0.19541048352843327,0.0
-0.00703758085222016,0.04402578401872921,0.1954383785055135,0.0
-0.007003248572736809,0.04410866428716949,0.19543811028458002,0.0
-0.007027924898615467,0.04400915432085446,0.195482634959535,0.0
-0.007043749933689825,0.04401693272792491,0.1955113345994156,0.0
-0.007016391398476529,0.044061725623813344,0.1955652470070418,0.0
-0.007032216433550886,0.04406413961221452,0.1955580050418383,0.0
-0.007078618655040104,0.0439785771344396,0.1954847807270027,0.0
-0.007092566143580215,0.043959801669097145,0.1955172354599518,0.0
-0.007073522457304294,0.04398367333217541,0.19557087964664455,0.0
-0.007067889817701557,0.043942903750288934,0.19557034320477762,0.0
-0.007088811050511724,0.04400674033245329,0.19554781264636667,0.0
-0.0071049043065195445,0.04395846056442983,0.19552206343675416,0.0
-0.007086933503977478,0.04395658301789558,0.19555290884410248,0.0
-0.007057160980363009,0.0439402215409543,0.1955681974373099,0.0
-0.00706011141063111,0.043932174912950386,0.1955276960763569,0.0
-0.007081837306241668,0.04389328287759815,0.19547753876179919,0.0
-0.007064671166499992,0.043850367528243964,0.19548719471540388,0.0
-0.007037312631286696,0.043891941772930834,0.1955247456460888,0.0
-0.0070729860154373665,0.04386377857491715,0.1954810256339342,0.0
-0.007097125899449098,0.043871556981987594,0.19539573137709276,0.0
-0.007099003445983344,0.04389435576133201,0.1954501802265859,0.0
-0.00708344663184245,0.043835883597836925,0.19554298466956432,0.0
-0.0071040996437191535,0.043805306411422065,0.19551991766928645,0.0
-0.0071384319232025055,0.04385465906317938,0.19550892061101444,0.0
-0.0071242162137289304,0.04383534715597,0.19550570195981287,0.0
-0.007114828481057702,0.04379189536474888,0.19553601092529427,0.0
-0.0070914932598463605,0.043790822481015027,0.19552796429729036,0.0
-0.007103563201852226,0.04383695648157078,0.1954515213312532,0.0
-0.0070981987831829525,0.0438382975862381,0.19546841925006142,0.0
-0.007066816933967702,0.04393619822695234,0.19558026737931578,0.0
-0.007085055957443232,0.04385063574917743,0.19559206910038818,0.0
-0.007081569085308204,0.043864851458651,0.19553708380902812,0.0
-0.007079959759707422,0.04387262986572145,0.19551187104128254,0.0
-0.007064671166499992,0.0438471488770424,0.1955660516698422,0.0
-0.007074327120104685,0.04378974959728117,0.19557463473971304,0.0
-0.00708344663184245,0.04378840849261385,0.19554942197196745,0.0
-0.00709873522504988,0.04381415770222637,0.19553547448342734,0.0
-0.007145673888406025,0.04374388381765888,0.19550865239008097,0.0
-0.007099539887850271,0.043731009212852626,0.19554995841383438,0.0
-0.007075936445705467,0.04375675842246514,0.19560628480986175,0.0
-0.007066548713034238,0.043816839911561004,0.19557919449558192,0.0
-0.007040531282488261,0.04378518984141229,0.19557892627464846,0.0
-0.007015854956609602,0.04374978467819508,0.19562613315893806,0.0
-0.007010222317006864,0.04380879328355709,0.19560038394932555,0.0
-0.007047505026758317,0.04378894493448078,0.19554486221609857,0.0
-0.007070572027036193,0.04379055426008156,0.19559314198412203,0.0
-0.00708854282957826,0.043747102468860447,0.19563122935667387,0.0
-0.007108927620521501,0.04374307915485849,0.1956044072633275,0.0
-0.007107586515854182,0.04378223941114419,0.19558482713518466,0.0
-0.00710168565531798,0.04372698589885067,0.19560628480986175,0.0
-0.007089347492378651,0.04375461265499743,0.1956502730429498,0.0
-0.0071049043065195445,0.04372913166631838,0.19560950346106332,0.0
-0.007077277550372785,0.04383481071410307,0.19561835475186762,0.0
-0.007077277550372785,0.0438138894812929,0.1956325704613412,0.0
-0.007080764422507813,0.04376775548073715,0.1955770487281142,0.0
-0.007063866503699601,0.04382542298143184,0.19560682125172868,0.0
-0.007072449573570439,0.043835883597836925,0.19566958495015918,0.0
-0.00708344663184245,0.04386592434238486,0.19562184162400265,0.0
-0.00709363902731407,0.04385278151664514,0.195619159414668,0.0
-0.007100344550650662,0.04379055426008156,0.19565349169415136,0.0
-0.007111341608922674,0.043795918678750836,0.1956339115660085,0.0
-0.00710383142278569,0.043841784458373126,0.19560038394932555,0.0
-0.007082373748108595,0.04385358617944553,0.19561352677506527,0.0
-0.007082105527175132,0.043777679655275306,0.19564410396148013,0.0
-0.007114560260124238,0.04373878761992307,0.19557838983278153,0.0
-0.0071384319232025055,0.04377338812033989,0.1955816084839831,0.0
-0.00710168565531798,0.043787872050746926,0.19563820310094393,0.0
-0.00708344663184245,0.043723767247649106,0.19562398739147036,0.0
-0.007079423317840495,0.043807452178889775,0.1955926055422551,0.0
-0.007084251294642841,0.04381201193475866,0.19559153265852125,0.0
-0.007100344550650662,0.04377875253900916,0.19560977168199678,0.0
-0.0071040996437191535,0.043707673991641285,0.19561835475186762,0.0
-0.007102758539051835,0.04373074099191916,0.1956014568330594,0.0
-0.007100076329717198,0.04373717829432229,0.19558643646078544,0.0
-0.007103563201852226,0.04371169730564324,0.19560092039119248,0.0
-0.007079959759707422,0.04374361559672542,0.19564464040334706,0.0
-0.007110805167055746,0.0436551026886824,0.19559394664692242,0.0
-0.007112682713589992,0.043647592502545414,0.19557973093744885,0.0
-0.0070729860154373665,0.04369774981710313,0.1956553692406856,0.0
-0.007037312631286696,0.043691580735633465,0.1957049901133764,0.0
-0.007052333003560663,0.04364786072347888,0.19567494936882845,0.0
-0.007051260119826808,0.0436188928626648,0.19563525267067583,0.0
-0.007081569085308204,0.04362908525813642,0.19562532849613767,0.0
-0.00708854282957826,0.04363123102560413,0.19563820310094393,0.0
-0.007085324178376696,0.04364491029321078,0.1956599289965545,0.0
-0.007123411550928539,0.04362908525813642,0.1956229145077365,0.0
-0.0070973941203825615,0.043707673991641285,0.19561567254253298,0.0
-0.0070780822131731765,0.04362988992093681,0.19563337512414158,0.0
-0.0070550152128953,0.043643300967609995,0.19569050618296935,0.0
-0.007090152155179042,0.043640350537341895,0.19564785905454862,0.0
-0.007102222097184908,0.04364973827001312,0.19562264628680304,0.0
-0.007092029701713288,0.043630158141870275,0.19563015647294002,0.0
-0.0070662804921007745,0.04358831567624994,0.19568675108990086,0.0
-0.0070550152128953,0.04355532450143391,0.19566690274082454,0.0
-0.007082910189975523,0.04359555764145346,0.1956170136472003,0.0
-0.0070670851549011655,0.04365027471188005,0.1956540281360183,0.0
-0.007060647852498037,0.04359099788558458,0.1956768269153627,0.0
-0.007080764422507813,0.04358161015291335,0.19564598150801438,0.0
-0.0071309217370655225,0.043633108572138375,0.195626669600805,0.0
-0.007122338667194685,0.04370284601483894,0.19560789413546253,0.0
-0.00711616958572502,0.04363203568840452,0.1955757076234469,0.0
-0.007135749713867869,0.04352903884995447,0.19565966077562102,0.0
-0.007101149213451053,0.0436765603633595,0.1956915790667032,0.0
-0.007115364922924629,0.04367280527029101,0.19564973660108287,0.0
-0.007121802225327757,0.04359636230425385,0.19564598150801438,0.0
-0.007117510690392338,0.043635254339606085,0.19573529907885778,0.0
-0.007128239527730886,0.04366180821201899,0.1957108909739126,0.0
-0.007121534004394294,0.04364732428161195,0.19564785905454862,0.0
-0.007104367864652617,0.043623720839467146,0.1956465179498813,0.0
-0.007103026759985299,0.04362237973479983,0.19565858789188717,0.0
-0.007120461120660439,0.04363766832800726,0.19561942763560147,0.0
-0.007143259900004852,0.043604677153191225,0.19560467548426097,0.0
-0.007148624318674125,0.04355183762929888,0.19561379499599874,0.0
-0.0070965894575821704,0.04358295125758067,0.1956473226126817,0.0
-0.0070981987831829525,0.04359502119958653,0.19565080948481672,0.0
-0.007114560260124238,0.043648397165345805,0.19562130518213572,0.0
-0.007112146271723065,0.04360494537412469,0.1956280107054723,0.0
-0.007115096701991165,0.04352796596622061,0.1956250602752042,0.0
-0.007112682713589992,0.04356927198997402,0.1956103081238637,0.0
-0.007119388236926584,0.04362452550226754,0.19553466982062695,0.0
-0.0071258255393297125,0.04353574437329106,0.195482634959535,0.0
-0.007074058899171221,0.043558006710768545,0.19561755008906723,0.0
-0.007063598282766138,0.043591534327451505,0.19559501953065628,0.0
-0.007085055957443232,0.04363632722333994,0.19548317140140192,0.0
-0.007128239527730886,0.0436277441534691,0.19544079249391466,0.0
-0.007123947992795467,0.04362988992093681,0.19548987692473851,0.0
-0.0071032949809187625,0.043595825862386924,0.1955298418438246,0.0
-0.007140577690670215,0.043597435187987706,0.19545420354058785,0.0
-0.007164449353748483,0.043619161083598264,0.19544696157538433,0.0
-0.007140577690670215,0.04365993066548474,0.195501142203944,0.0
-0.007133067504533232,0.04363766832800726,0.1954885358200712,0.0
-0.00714674677213988,0.04365993066548474,0.19543811028458002,0.0
-0.007153988737343399,0.043647592502545414,0.19539439027242544,0.0
-0.007146478551206416,0.04362559838600139,0.19542255347043913,0.0
-0.0071183153531927295,0.043678437909893744,0.1953933173886916,0.0
-0.007141918795337533,0.04364866538627927,0.19508244932680718,0.0
-0.0071443327837387065,0.04365993066548474,0.19516854824644903,0.0
-0.0071040996437191535,0.043713574852177486,0.1955129439250164,0.0
-0.007088006387711333,0.043696676933369274,0.1953777605745507,0.0
-0.0071124144926565285,0.043720816817381006,0.19524499121248617,0.0
-0.007148356097740662,0.04370284601483894,0.1952197784447406,0.0
-0.007099808108783735,0.043690239630966146,0.19529461208517696,0.0
-0.007057429201296473,0.04371303841031056,0.19532438460879142,0.0
-0.007094175469180997,0.04364491029321078,0.1952455276543531,0.0
-0.007114292039190774,0.04364517851414424,0.19517230333951752,0.0
-0.007088006387711333,0.04371089264284285,0.19518383683965645,0.0
-0.007085055957443232,0.043663685758553235,0.195194565676995,0.0
-0.007060647852498037,0.04369399472403464,0.1951688164673825,0.0
-0.007066816933967702,0.043697481596169666,0.19513314308323182,0.0
-0.007079959759707422,0.04367521925869218,0.19517847242098718,0.0
-0.007070840247969657,0.04369211717750039,0.19519724788632964,0.0
-0.007049650794226026,0.043690776072833074,0.1951886648164588,0.0
-0.007080227980640886,0.043636059002406476,0.19515299143230813,0.0
-0.00706815803863502,0.04371330663124402,0.19516935290924942,0.0
-0.007082641969042059,0.043665831526020944,0.1952034169677993,0.0
-0.007086933503977478,0.04364169164200921,0.1952079767236682,0.0
-0.007066548713034238,0.04369265361936732,0.1951894694792592,0.0
-0.007077545771306249,0.04369989558457084,0.19516532959524746,0.0
-0.007079959759707422,0.043648397165345805,0.19516667069991478,0.0
-0.007079423317840495,0.04364517851414424,0.19518303217685606,0.0
-0.007097930562249489,0.04368594809603073,0.1951103443038874,0.0
-0.007172495981752393,0.043617819978930945,0.1951339477460322,0.0
-0.007236869005783677,0.04359502119958653,0.19525545182889126,0.0
-0.007069230922368875,0.04364517851414424,0.19522621574714372,0.0
-0.007079423317840495,0.04378867671354732,0.19504570305892266,0.0
-0.0070603796315645735,0.04375595375966475,0.19514923633923964,0.0
-0.007076741108505858,0.04368782564256497,0.19516237916497936,0.0
-0.007091761480779824,0.04370230957297201,0.19511275829228858,0.0
-0.007084251294642841,0.043787872050746926,0.19511678160629053,0.0
-0.007074863561971612,0.04378733560888,0.19515272321137467,0.0
-0.00706011141063111,0.043757294864332066,0.1951658660371144,0.0
-0.007075936445705467,0.043729399887251844,0.19513421596696567,0.0
-0.007097662341316025,0.043749248236328156,0.19511436761788936,0.0
-0.007086665283044014,0.043821399667429886,0.1951599651765782,0.0
-0.007093370806380606,0.04378304407394458,0.19516640247898132,0.0
-0.007121534004394294,0.04378223941114419,0.19517257156045098,0.0
-0.007153452295476472,0.04385358617944553,0.19514467658337076,0.0
-0.007181347272556695,0.0438109390510248,0.19512160958309288,0.0
-0.007167668004950047,0.043798064446218546,0.19514601768803808,0.0
-0.007158280272278818,0.04375246688752972,0.19510283411775042,0.0
-0.007147014993073343,0.043816839911561004,0.19509425104787959,0.0
-0.007158816714145745,0.04383025095823419,0.19510793031548623,0.0
-0.007155061621077254,0.04381818101622832,0.19512321890869366,0.0
-0.007167131563083119,0.04381737635342793,0.19511973203655864,0.0
-0.007193685435496025,0.04384500310957469,0.19501646697717512,0.0
-0.0072274812731124485,0.04376829192260408,0.194954507941545,0.0
-0.007200122737899153,0.043745493143259664,0.1950926417222788,0.0
-0.007193685435496025,0.04375327155033011,0.1951073938736193,0.0
-0.007180810830689768,0.043740396945523854,0.19507976711747255,0.0
-0.007185907028425578,0.043722157922048324,0.1950269275935802,0.0
-0.0071561345048111085,0.04371384307311095,0.1950298780238483,0.0
-0.0071502336442749075,0.043705528224173576,0.19503470600065065,0.0
-0.007161767144413846,0.0436765603633595,0.19500573813983657,0.0
-0.007173300644552784,0.04368889852629883,0.19498830377916143,0.0
-0.007153720516409935,0.04372028037551408,0.19501834452370936,0.0
-0.007161230702546918,0.043654298025882006,0.19505374968692657,0.0
-0.007151306528008762,0.043657248456150106,0.19505991876839623,0.0
-0.007180006167889377,0.043707673991641285,0.19503443777971718,0.0
-0.007166058679349265,0.04372644945698374,0.19502585470984635,0.0
-0.007129044190531277,0.04372028037551408,0.19508352221054104,0.0
-0.00714165057440407,0.04369265361936732,0.19504650772172305,0.0
-0.007148356097740662,0.04371008798004246,0.19486679969630238,0.0
-0.007134945051067478,0.04369855447990352,0.19488906203377987,0.0
-0.0071494289814745164,0.04368407054949648,0.19520985427020243,0.0
-0.007158548493212282,0.04368702097976458,0.19512536467616137,0.0
-0.007146478551206416,0.04373181387565302,0.19503443777971718,0.0
-0.0071703502142846836,0.04362908525813642,0.19510390700148428,0.0
-0.007160426039746527,0.043623720839467146,0.1951613062812455,0.0
-0.007122875109061612,0.04366529508415402,0.19515433253697545,0.0
-0.0071325310626663046,0.043690776072833074,0.19511839093189132,0.0
-0.007120192899726975,0.04366529508415402,0.19509371460601266,0.0
-0.007084251294642841,0.04365671201428318,0.19515084566484042,0.0
-0.007096321236648707,0.04360843224625972,0.19515111388577389,0.0
-0.007108927620521501,0.04359770340892117,0.19511839093189132,0.0
-0.007080227980640886,0.04369828625897006,0.19509210528041188,0.0
-0.007064939387433456,0.043681388340161845,0.19516854824644903,0.0
-0.007062793619965747,0.04364947004907966,0.19521280470047053,0.0
-0.007079423317840495,0.04366529508415402,0.19520100297939813,0.0
-0.0070965894575821704,0.043614064885862454,0.1951309973157641,0.0
-0.0070713766898365844,0.04363686366520687,0.19520019831659774,0.0
-0.0070550152128953,0.04361433310679592,0.1952602798056936,0.0
-0.007044554596490216,0.043614064885862454,0.19523560347981495,0.0
-0.007089347492378651,0.04357168597837519,0.1952227288750087,0.0
-0.007090152155179042,0.04357463640864329,0.19525384250329048,0.0
-0.007024438026480439,0.04366770907255519,0.19531687442265444,0.0
-0.007045359259290607,0.043649201828146196,0.19530078116664662,0.0
-0.0070788868759735675,0.04369292184030078,0.19527154508489908,0.0
-0.007087738166777869,0.04370660110790743,0.19525893870102629,0.0
-0.00706815803863502,0.04362667126973525,0.19532036129478947,0.0
-0.0070418723871555795,0.043633108572138375,0.19537883345828455,0.0
-0.007058502085030328,0.04366475864228709,0.19534128252759964,0.0
-0.007076741108505858,0.0436277441534691,0.19531392399238634,0.0
-0.00707835043410664,0.04354808253623039,0.1953466469462689,0.0
-0.007064134724633065,0.04357865972264525,0.19536381308601058,0.0
-0.007034630421952059,0.043658589560817425,0.19533967320199885,0.0
-0.007070840247969657,0.0436070911415924,0.19532197062039025,0.0
-0.007058770305963791,0.04361755175799748,0.19534316007413388,0.0
-0.007045359259290607,0.04365000649094659,0.19533296767866226,0.0
-0.007042140608089043,0.043664490421353626,0.19534289185320042,0.0
-0.007087469945844405,0.043624257281334074,0.19529407564331003,0.0
-0.00707540000383854,0.04364061875827536,0.19531821552732176,0.0
-0.007057429201296473,0.04361621065333016,0.19531580153892059,0.0
-0.007069499143302339,0.04364732428161195,0.19542335813323952,0.0
-0.0070252426892808304,0.04372349902671564,0.19538419787695382,0.0
-0.007046700363957926,0.04365081115374698,0.19536542241161137,0.0
-0.007048309689558708,0.04365242047934776,0.19535147492307126,0.0
-0.007047236805824853,0.043608968688126644,0.1953267985971926,0.0
-0.007026583793948149,0.04360521359505815,0.1954102153074998,0.0
-0.0070268520148816125,0.04361084623466089,0.195445620470717,0.0
-0.007061988957165356,0.04359931273452195,0.1954295272147092,0.0
-0.007079423317840495,0.04361245556026167,0.19542362635417299,0.0
-0.0070654758293003835,0.04359207076931843,0.19545205777312014,0.0
-0.007050455457026417,0.04356122536197011,0.1954788798664665,0.0
-0.007059843189697646,0.043542718117561115,0.19542389457510645,0.0
-0.007068694480501948,0.04354030412915994,0.19541343395870137,0.0
-0.007102758539051835,0.04348826926806799,0.1954257721216407,0.0
-0.007068694480501948,0.04352984351275486,0.19547244256406338,0.0
-0.007036776189419769,0.04359502119958653,0.19558697290265237,0.0
-0.0070418723871555795,0.043607627583459325,0.19557168430944494,0.0
-0.007045091038357144,0.04358885211811687,0.19556927032104376,0.0
-0.007033825759151668,0.043568199106240164,0.1956073576935956,0.0
-0.007045091038357144,0.04354244989662765,0.19558697290265237,0.0
-0.007066548713034238,0.04355773848983508,0.1955462033207659,0.0
-0.007061452515298428,0.04360843224625972,0.19558214492585002,0.0
-0.0070260473520812215,0.04362050218826558,0.19563310690320812,0.0
-0.007016927840343456,0.04362559838600139,0.19564624972894784,0.0
-0.007015586735676138,0.04366207643295245,0.19560065217025902,0.0
-0.006992251514464798,0.04365188403748083,0.19544883912191857,0.0
-0.006978304025924686,0.043639009432674576,0.1956760222525623,0.0
-0.007010490537940328,0.0436041407113243,0.1958423192313098,0.0
-0.007014782072875747,0.04357946438544564,0.19572242447405153,0.0
-0.007002980351803345,0.0436041407113243,0.1957218880321846,0.0
-0.006974548932856195,0.04359126610651804,0.19577016780020806,0.0
-0.006974548932856195,0.04353815836169223,0.19579913566102214,0.0
-0.006998420595934462,0.04356927198997402,0.19577472755607694,0.0
-0.006998420595934462,0.04362157507199944,0.19577767798634504,0.0
-0.006999493479668317,0.043603872490390834,0.19581630180076381,0.0
-0.007003785014603736,0.043576782176111,0.19583293149863856,0.0
-0.006990910409797479,0.04362908525813642,0.1958015496494233,0.0
-0.006986350653928597,0.0435708813155748,0.1957736546723431,0.0
-0.006972939607255413,0.04356551689690553,0.1958600218129184,0.0
-0.006976158258456977,0.04354540032689575,0.19590964268560918,0.0
-0.006991178630730943,0.0435649804550386,0.1958865756853313,0.0
-0.006964892979251501,0.043640350537341895,0.19586538623158767,0.0
-0.006941825978973625,0.043664490421353626,0.19587504218519236,0.0
-0.006946117513909044,0.04363123102560413,0.19589408587146828,0.0
-0.006968916293253457,0.04356873554810709,0.19593002747655242,0.0
-0.006992251514464798,0.04363284035120491,0.19596596908163655,0.0
-0.007010490537940328,0.043677096805226426,0.19593351434868744,0.0
-0.0069890328632632335,0.04365456624681547,0.19600888443099074,0.0
-0.006994397281932507,0.043640350537341895,0.19607164812942124,0.0
-0.007019610049678093,0.043667977293488654,0.19603624296620403,0.0
-0.007002175689002954,0.0436765603633595,0.19604884935007683,0.0
-0.006980718014325859,0.04368299766576263,0.19609659267623336,0.0
-0.0069890328632632335,0.04368594809603073,0.19611670924624314,0.0
-0.007031143549817031,0.04365107937468044,0.19611027194384,0.0
-0.007053137666361054,0.04366717263068826,0.19611831857184392,0.0
-0.007019878270611557,0.04375380799219704,0.19619878485188302,0.0
-0.006998688816867926,0.04376319572486827,0.1962277527126971,0.0
-0.0069941290609990435,0.043787067387946535,0.1962167556544251,0.0
-0.007017464282210384,0.04377204701567257,0.196213805224157,0.0
-0.0070070036658053,0.043778216097142233,0.19628622487619218,0.0
-0.007015586735676138,0.04371947571271369,0.19634121016755224,0.0
-0.007037044410353232,0.04371625706151212,0.1963495250164896,0.0
-0.007045359259290607,0.04374576136419313,0.19633799151635067,0.0
-0.00703248465448435,0.04375166222472933,0.19639002637744263,0.0
-0.007019878270611557,0.04374012872459039,0.19628890708552682,0.0
-0.007017732503143847,0.04376909658540447,0.19624867394550727,0.0
-0.0070209511543454116,0.04375380799219704,0.19656276065859324,0.0
-0.007001102805269099,0.043757294864332066,0.19661828239182022,0.0
-0.007010490537940328,0.043722962584848715,0.19662015993835447,0.0
-0.007041335945288652,0.043715720619645196,0.19656276065859324,0.0
-0.00699681127033368,0.04381201193475866,0.19659816582181044,0.0
-0.0069815226771262505,0.04378358051581151,0.19666119774117444,0.0
-0.0069560416884472,0.043784921620478826,0.1966947253578574,0.0
-0.006939143769638988,0.04381871745809525,0.1967250343233388,0.0
-0.006972134944455022,0.04382730052796609,0.19667085369477913,0.0
-0.007004321456470663,0.04376990124820486,0.19666334350864215,0.0
-0.0069697209560538485,0.04378599450421268,0.1967376407072116,0.0
-0.006966770525785747,0.04377285167847296,0.19677090010296108,0.0
-0.007002175689002954,0.04383186028383497,0.19676178059122332,0.0
-0.0070070036658053,0.04381898567902871,0.1967663403470922,0.0
-0.006985545991128206,0.04378331229487804,0.1968025501731098,0.0
-0.006979645130592005,0.0437784843180757,0.19684492908059706,0.0
-0.006991446851664407,0.04382917807450033,0.1968017455103094,0.0
-0.007001102805269099,0.04387182520292106,0.19678511581243466,0.0
-0.007002443909936418,0.04384580777237508,0.19690474234875946,0.0
-0.0069957383865998255,0.04389381931946508,0.1969798442101293,0.0
-0.007031679991683959,0.04387987183092497,0.1969398792910432,0.0
-0.007023633363680048,0.04396141099469793,0.19694712125624672,0.0
-0.007034362201018596,0.04394478129682318,0.19697635733799426,0.0
-0.0070193418287446295,0.04398635554151005,0.1970093485128103,0.0
-0.007019878270611557,0.04392090963374491,0.1970144447105461,0.0
-0.007027924898615467,0.043941562645621615,0.19704797232722907,0.0
-0.007033289317284741,0.0438892595635962,0.19705038631563024,0.0
-0.007042408829022507,0.04388577269146117,0.1970603104901684,0.0
-0.007036507968486305,0.043927615157081504,0.19690179191849136,0.0
-0.007047236805824853,0.04395309614576055,0.19712548817700007,0.0
-0.007063330061832674,0.04391474055227525,0.1972663041670685,0.0
-0.007067621596768093,0.04391956852907759,0.19723492231785325,0.0
-0.0070729860154373665,0.04396516608776642,0.1972292896782505,0.0
-0.007070572027036193,0.044024711134995356,0.19718127813116051,0.0
-0.00706520760836692,0.044041340832870104,0.1972131964222427,0.0
-0.0070611842943649646,0.0439785771344396,0.19725852575999805,0.0
-0.0070544787710283725,0.043939416878153906,0.1972856160742779,0.0
-0.0070670851549011655,0.04395336436669402,0.19728132453934247,0.0
-0.007062257178098819,0.04399306106484664,0.19727408257413895,0.0
-0.007050187236092954,0.04401103186738871,0.19735508529604498,0.0
-0.007035971526619378,0.043985282657776195,0.1974081930408708,0.0
-0.007075131782905076,0.04393163847108346,0.19738324849405867,0.0
-0.007069499143302339,0.044048582798073624,0.19738458959872598,0.0
-0.007079959759707422,0.044023101809394574,0.19742777316901364,0.0
-0.007086665283044014,0.04399306106484664,0.19750689834438542,0.0
-0.007088274608644796,0.04394209908748854,0.1975262102515948,0.0
-0.007080227980640886,0.04403651285606776,0.19753023356559676,0.0
-0.007069230922368875,0.04404295015847089,0.19754310817040302,0.0
-0.007060916073431501,0.04398394155310888,0.19762330622950866,0.0
-0.007059038526897255,0.04397616314603843,0.19759889812456347,0.0
-0.007063866503699601,0.04398340511124195,0.1975661751706809,0.0
-0.007070035585169266,0.04400378990218519,0.1976238426713756,0.0
-0.007066012271167311,0.043965702529633346,0.19766166182299397,0.0
-0.007077813992239713,0.04397455382043765,0.19767587753246754,0.0
-0.007104636085586081,0.043991719960179324,0.19766380759046168,0.0
-0.007082910189975523,0.043984477994975804,0.19764503212511922,0.0
-0.007058233864096864,0.0439785771344396,0.19748919576277682,0.0
-0.007054746991961836,0.04399869370444938,0.19765281053218967,0.0
-0.007070572027036193,0.04397991823910692,0.1978453931624166,0.0
-0.007051260119826808,0.04402122426286033,0.19778048369651838,0.0
-0.007040531282488261,0.043997620820715524,0.1978024778130624,0.0
-0.0070335575382182046,0.044002717018451334,0.19782447192960642,0.0
-0.0070611842943649646,0.044009958983654854,0.19779711339439313,0.0
-0.007088006387711333,0.04396355676216564,0.19777243706851447,0.0
-0.007060647852498037,0.0440118365301891,0.19783144567387648,0.0
-0.007036507968486305,0.04406709004248262,0.19788777206990385,0.0
-0.007071644910770048,0.044031953100198876,0.1978630957440252,0.0
-0.007071644910770048,0.044033294204866194,0.1978740928022972,0.0
-0.007040531282488261,0.04403302598393273,0.19791352127951636,0.0
-0.00702738845674854,0.04398420977404234,0.19793444251232653,0.0
-0.007056356317562618,0.0439490728317586,0.19794409846593122,0.0
-0.007054746991961836,0.043977236029772285,0.1979250547796553,0.0
-0.007009685875139937,0.04405555654234368,0.19795214509393513,0.0
-0.006993592619132116,0.04405716586794446,0.19796823834994295,0.0
-0.007003785014603736,0.044068431147149936,0.197945707791532,0.0
-0.007026583793948149,0.044058775193545244,0.19798299050128346,0.0
-0.007030607107950104,0.04409927655449826,0.19798299050128346,0.0
-0.006992519735398261,0.044074868449553065,0.19800525283876094,0.0
-0.007011831642607646,0.044010763646455245,0.1980476317462482,0.0
-0.00699681127033368,0.04413012196184658,0.19807016230465915,0.0
-0.006971062060721167,0.044108396066236025,0.19806882119999183,0.0
-0.006952554816312172,0.04413065840371351,0.19813614465429122,0.0
-0.006945312851108653,0.04414433767132016,0.19812648870068653,0.0
-0.006971330281654631,0.04415104319465675,0.1980956432933382,0.0
-0.0069412895371066975,0.04419315388121055,0.1981495557009644,0.0
-0.006917954315895357,0.0441226117757096,0.19824289658580976,0.0
-0.006892473327216306,0.04414970208998943,0.1982624767139526,0.0
-0.006910444129758374,0.04413655926424971,0.19824584701607786,0.0
-0.006914199222826866,0.04412770797344541,0.19824718812074518,0.0
-0.006878794059609658,0.044101154101032505,0.19831156114477647,0.0
-0.006876916513075412,0.04407138157741804,0.19834347943585864,0.0
-0.006898374187752507,0.04409552146142977,0.1983327505985201,0.0
-0.006913931001893402,0.044120734229175354,0.1983630595640015,0.0
-0.006908298362290665,0.044112687601171444,0.1983947096341502,0.0
-0.006901861059887536,0.044099008333564796,0.19845774155351417,0.0
-0.006871015652539211,0.04414541055505401,0.19850977641460613,0.0
-0.006889522896948205,0.044150774973723286,0.19850387555406993,0.0
-0.006892205106282842,0.04414836098532211,0.19857334477583702,0.0
-0.006879062280543122,0.04413950969451781,0.19858863336904445,0.0
-0.006858945710533346,0.044139777915451275,0.1984561322279134,0.0
-0.0068801351642769765,0.04413655926424971,0.19851058107740652,0.0
-0.00688040338521044,0.044182693264805464,0.19888126240745335,0.0
-0.006867797001337647,0.044166600008797643,0.19884102926743377,0.0
-0.0068683334432045745,0.04409713078703055,0.19879221305754338,0.0
-0.006882012710811222,0.04409471679862938,0.19877477869686824,0.0
-0.006890864001615524,0.044152920741190996,0.19879972324368037,0.0
-0.006879598722410049,0.04417598774146887,0.19881286606942009,0.0
-0.006920636525229994,0.04404616880967245,0.19884934411637115,0.0
-0.006938607327772061,0.04410866428716949,0.19891613112880363,0.0
-0.006940484874306306,0.04416874577626535,0.1989155946869367,0.0
-0.006936461560304351,0.0441226117757096,0.19895046340828698,0.0
-0.006911248792558765,0.04414970208998943,0.19899337875764117,0.0
-0.006944776409241725,0.04416257669479569,0.19895448672228894,0.0
-0.0069764264793904405,0.04412314821757653,0.19896253335029285,0.0
-0.0069286831532339044,0.04419315388121055,0.19905560601420474,0.0
-0.006926000943899268,0.04419610431147865,0.1990751861423476,0.0
-0.006952286595378708,0.04420576026508334,0.19904165852566463,0.0
-0.006969452735120385,0.0441912763346763,0.19902824747899145,0.0
-0.0069487997232436805,0.04416901399719882,0.19911005486369787,0.0
-0.006939411990572452,0.04416901399719882,0.19919937243454128,0.0
-0.006946653955775971,0.04416364957852954,0.19918703427160195,0.0
-0.006957919234981446,0.04411107827557066,0.1991468011315824,0.0
-0.006936729781237815,0.04417384197400116,0.1992087601672125,0.0
-0.00690722547855681,0.04416633178786418,0.19924818864443167,0.0
-0.006909907687891447,0.04413280417118122,0.19925274840030055,0.0
-0.00693056069976815,0.04413334061304815,0.19922485342322033,0.0
-0.006953359479112563,0.04413012196184658,0.19922458520228686,0.0
-0.0069243916182984856,0.04415962626452759,0.19926374545857256,0.0
-0.006945312851108653,0.044093107473028595,0.19927715650524574,0.0
-0.0069681116304530655,0.04417866995080351,0.19932168118020072,0.0
-0.006971598502588094,0.04421032002095222,0.1993152438777976,0.0
-0.006974280711922731,0.044195836090545185,0.19934072486647664,0.0
-0.006986350653928597,0.04421434333495418,0.19935225836661558,0.0
-0.006980181572458932,0.04420120050921446,0.19933562866874083,0.0
-0.006954164141912954,0.0442666464169796,0.19932811848260384,0.0
-0.006927878490433513,0.04420361449761563,0.19938471309956468,0.0
-0.0069286831532339044,0.04417491485773502,0.19943513863505585,0.0
-0.006972134944455022,0.044131731287447365,0.199415558506913,0.0
-0.006967843409519602,0.04423204591656279,0.19947268956574077,0.0
-0.0069294878160342955,0.04423928788176631,0.19946464293773686,0.0
-0.006929219595100832,0.04410061765916558,0.19952445620589926,0.0
-0.006913126339093011,0.044124489322243846,0.19961886997447847,0.0
-0.006941825978973625,0.04409444857769591,0.199578100392592,0.0
-0.006906689036689883,0.04415184785745714,0.19962101574194618,0.0
-0.006872088536273066,0.04415748049705988,0.19967385526583853,0.0
-0.006905616152956028,0.04412797619437887,0.19965722556796378,0.0
-0.006909371246024519,0.04417169620653345,0.19969209428931406,0.0
-0.006908566583224128,0.04416257669479569,0.19973447319680132,0.0
-0.006889522896948205,0.0441676728925315,0.19977658388335512,0.0
-0.006923050513631167,0.04410732318250217,0.19978248474389132,0.0
-0.006921172967096921,0.044147824543455186,0.19978382584855864,0.0
-0.006927878490433513,0.04415372540399139,0.1998063564069696,0.0
-0.006918758978695748,0.04415479828772524,0.1998860180242083,0.0
-0.0069412895371066975,0.044102495205699824,0.1999058663732846,0.0
-0.006952554816312172,0.0441137604849053,0.1999281287107621,0.0
-0.006946385734842507,0.044151311415590214,0.19996219276931199,0.0
-0.006942362420840552,0.04415023853185636,0.20002737045614366,0.0
-0.006969989176987312,0.04413226772931429,0.2000115454210693,0.0
-0.006987691758595915,0.044097399007964014,0.19999920725812997,0.0
-0.006976158258456977,0.044091766368361276,0.2000654578286955,0.0
-0.006971866723521558,0.044098203670764405,0.2001215160037894,0.0
-0.006960869665249546,0.044118588461707645,0.2001504838646035,0.0
-0.0069874235376624514,0.04411751557797379,0.20011749268978746,0.0
-0.006997079491267144,0.04411992956637496,0.20014324189939997,0.0
-0.006912858118159547,0.044254308254040274,0.20028727654066997,0.0
-0.006920636525229994,0.04421461155588764,0.20030953887814745,0.0
-0.0069428988627074795,0.04417411019493463,0.20030229691294393,0.0
-0.006952018374445245,0.044183497927605855,0.2003328740993588,0.0
-0.006937534444038206,0.04414138724105206,0.2004007339955251,0.0
-0.0068927415481497695,0.04418162038107161,0.20045974260088711,0.0
-0.006903202164554855,0.04418108393920468,0.2004259467632707,0.0
-0.0069235869554980945,0.044101958763832896,0.20037525300684605,0.0
-0.006906957257623346,0.044110541833703734,0.20053350335758963,0.0
-0.006907761920423737,0.04410598207783485,0.20061504252136259,0.0
-0.0069353886765704965,0.044074868449553065,0.20062496669590074,0.0
-0.006929219595100832,0.04412100245010882,0.2006319404401708,0.0
-0.006927878490433513,0.04412797619437887,0.20067592867325884,0.0
-0.006886304245746641,0.04414085079918513,0.2007596136044995,0.0
-0.006923050513631167,0.04409418035676245,0.20079501876771672,0.0
-0.006936461560304351,0.04416338135759608,0.20082184086106308,0.0
-0.006909103025091056,0.044199591183613676,0.20085214982654448,0.0
-0.006890327559748596,0.04417437841586809,0.20095809709526263,0.0
-0.00687021098973882,0.04421514799775457,0.2010152281540904,0.0
-0.006872893199073457,0.04420710136975066,0.20098384630487515,0.0
-0.006868065222271111,0.04419234921841016,0.2010541201894427,0.0
-0.00686216436173491,0.04422560861415966,0.2011721374001667,0.0
-0.006864846571069547,0.04418966700907552,0.2011839391212391,0.0
-0.00688549958294625,0.04417411019493463,0.20118072047003754,0.0
-0.006916613211228039,0.044199591183613676,0.20120700612151698,0.0
-0.0069034703854883184,0.04417786528800312,0.20125233545927235,0.0
-0.0068608232570675914,0.04417518307866848,0.20131161228556782,0.0
-0.006884963141079323,0.044141923682918985,0.20130785719249933,0.0
-0.00690722547855681,0.04416123559012837,0.20135479585585547,0.0
-0.006898374187752507,0.0441647224622634,0.20140388028667933,0.0
-0.006889791117881669,0.044162308473862225,0.20144518631043273,0.0
-0.006895423757484406,0.044169550439065744,0.20144089477549731,0.0
-0.006919831862429603,0.04419342210214401,0.20139395611214117,0.0
-0.00692761026950005,0.04418618013694049,0.20144491808949927,0.0
-0.006909907687891447,0.04414085079918513,0.20153879541621156,0.0
-0.0068868406876135685,0.04415828515986027,0.20159297604477122,0.0
-0.006920100083363067,0.044184839032273174,0.20159512181223893,0.0
-0.006934315792836642,0.04420763781161759,0.20161845703345027,0.0
-0.006941557758040161,0.044157212276126415,0.20168631692961658,0.0
-0.006957651014047982,0.044104909194101,0.20178341290753044,0.0
-0.006975353595656586,0.04410571385690139,0.20177027008179071,0.0
-0.006965429421118429,0.04418027927640429,0.2017525675001821,0.0
-0.006916344990294575,0.04411322404303837,0.2018397393035578,0.0
-0.006921709408963849,0.04410356808943368,0.20188399575757932,0.0
-0.006943971746441334,0.044125830426911164,0.20183303378022122,0.0
-0.006943167083640943,0.04414353300851977,0.2018279375824854,0.0
-0.006923318734564631,0.04413012196184658,0.20186548851317032,0.0
-0.006915003885627257,0.04414755632252172,0.20190169833918792,0.0
-0.0068935462109501605,0.044191544555609766,0.20187943600171043,0.0
-0.006895155536550943,0.04418081571827122,0.20185100458276328,0.0
-0.006891668664415915,0.04415855338079373,0.2018907012809159,0.0
-0.006896496641218261,0.044068431147149936,0.20191698693239535,0.0
-0.006887108908547032,0.04410383631036714,0.20192503356039926,0.0
-0.006916613211228039,0.044126635089711555,0.20189847968798635,0.0
-0.006888986455081278,0.044197981858012894,0.2019845786076282,0.0
-0.006880671606143904,0.04415050675278982,0.20207952881807434,0.0
-0.006884426699212395,0.044134681717715465,0.2020974996206164,0.0
-0.006908298362290665,0.044152116078390605,0.20207067752727004,0.0
-0.006929219595100832,0.04417276909026731,0.2021079602370215,0.0
-0.006911248792558765,0.044144874113187085,0.20214577938863987,0.0
-0.006896764862151725,0.044147019880654795,0.2021618726446477,0.0
-0.006909639466957983,0.04417893817173697,0.20214685227237372,0.0
-0.006913126339093011,0.04417384197400116,0.2021846714239921,0.0
-0.006932438246302396,0.04413334061304815,0.20221310284293925,0.0
-0.006946922176709435,0.044088011275292785,0.2022334876338825,0.0
-0.0069243916182984856,0.04411161471743759,0.2022554817504265,0.0
-0.006898374187752507,0.04412180711290921,0.20222490456401165,0.0
-0.006876111850275021,0.04407379556581921,0.20224582579682182,0.0
-0.006866992338537256,0.044015859844191055,0.20222490456401165,0.0
-0.006876380071208485,0.044086401949692,0.2022444846921545,0.0
-0.0069050797110891005,0.044096057903296695,0.20222222235467702,0.0
-0.006884426699212395,0.04412824441531234,0.2022541406457592,0.0
-0.006881208048010831,0.0441137604849053,0.20227452543670243,0.0
-0.006921172967096921,0.044067626484349545,0.20222409990121126,0.0
-0.00691527210656072,0.04413334061304815,0.20220505621493534,0.0
-0.006909103025091056,0.04417223264840038,0.20221015241267115,0.0
-0.0069109805716253015,0.04414755632252172,0.2021897676217279,0.0
-0.0069302924788346865,0.04409981299636519,0.20219808247066529,0.0
-0.006932438246302396,0.044140582578251666,0.20221310284293925,0.0
-0.006905884373889492,0.0441794746136039,0.20219540026133065,0.0
-0.006907493699490274,0.044117247357040326,0.20217635657505473,0.0
-0.0069176860949618935,0.04410732318250217,0.20219915535439914,0.0
-0.006939411990572452,0.04414380122945323,0.20215382601664378,0.0
-0.0069412895371066975,0.04410973717090334,0.20214068319090406,0.0
-0.006925732722965804,0.04409927655449826,0.20220639731960266,0.0
-0.00692036830429653,0.044177597067069654,0.20217340614478663,0.0
-0.006966770525785747,0.04412341643850999,0.2020945491903483,0.0
-0.006929756036967759,0.04415962626452759,0.2021573128887788,0.0
-0.006944776409241725,0.04414836098532211,0.20216804172611735,0.0
-0.006964892979251501,0.04412395288037692,0.2021750154703874,0.0
-0.006959528560582228,0.0441588216017272,0.20213344122570054,0.0
-0.006961942548983401,0.04411751557797379,0.20209857250435026,0.0
-0.006948263281376753,0.04410651851970178,0.20217850234252244,0.0
-0.006939948432439379,0.04410732318250217,0.20218440320305864,0.0
-0.006967575188586138,0.04412207533384267,0.20213719631876903,0.0
-0.006999761700601781,0.04411912490357457,0.2020937445275479,0.0
-0.0069756218165900495,0.04407111335648457,0.2021404149699706,0.0
-0.006961942548983401,0.04408667017062547,0.20222222235467702,0.0
-0.006972939607255413,0.04406011629821256,0.2021884265170606,0.0
-0.006998152375000999,0.044065480716881836,0.20220291044746763,0.0
-0.006987155316728988,0.04407889176355502,0.2022466304596222,0.0
-0.006970793839787703,0.04403088021646502,0.2022874000415087,0.0
-0.006982059118993178,0.04400915432085446,0.20226567414589813,0.0
-0.006975890037523513,0.04402927089086424,0.20221390750573964,0.0
-0.006969989176987312,0.044006472111519826,0.20226191905282964,0.0
-0.006961674328049937,0.044024711134995356,0.20228123096003903,0.0
-0.00698876464232977,0.044023101809394574,0.20220478799400188,0.0
-0.007003516793670272,0.04398072290190731,0.2022377791688179,0.0
-0.006998420595934462,0.0439756267041715,0.2023139539139216,0.0
-0.006985009549261278,0.04397374915763726,0.2023456039840703,0.0
-0.00697347604912234,0.04396650719243374,0.20233567980953215,0.0
-0.006999225258734853,0.04399440216951396,0.2023279014024617,0.0
-0.006983400223660496,0.04402551579779575,0.20236169724007813,0.0
-0.006960333223382619,0.04401559162325759,0.20240005283356344,0.0
-0.006960869665249546,0.04399440216951396,0.2024180236361055,0.0
-0.006980986235259323,0.04399574327418128,0.2023796680426202,0.0
-0.006984204886460887,0.04401103186738871,0.20237537650768478,0.0
-0.006970257397920776,0.04397240805296994,0.202414268543037,0.0
-0.006961942548983401,0.04393834399442005,0.20240058927543036,0.0
-0.006955237025646809,0.04396167921563139,0.20238744644969064,0.0
-0.006946922176709435,0.043956046576028654,0.20242875247344405,0.0
-0.006932438246302396,0.043960874552831,0.2024306300199783,0.0
-0.006933779350969714,0.043956851238829045,0.2024373355433149,0.0
-0.006916613211228039,0.04397616314603843,0.20242151050824053,0.0
-0.006930024257901223,0.04400378990218519,0.2024172189733051,0.0
-0.006926537385766195,0.044009422541787926,0.20247595935773366,0.0
-0.006908566583224128,0.04398850130897776,0.20252182513735595,0.0
-0.00694584929297558,0.043971335169236084,0.20247059493906439,0.0
-0.006963015432717256,0.04403383064673312,0.20241078167090198,0.0
-0.006958187455914909,0.04400030303005016,0.20242928891531098,0.0
-0.006934584013770105,0.043977236029772285,0.20251082807908394,0.0
-0.006918490757762285,0.04399923014631631,0.20248212843920332,0.0
-0.006951213711644854,0.044001375913784016,0.20241668253143819,0.0
-0.006933242909102787,0.04408130575195619,0.20246362119479433,0.0
-0.006929219595100832,0.04407889176355502,0.20250492721854774,0.0
-0.006962478990850328,0.04401559162325759,0.20250036746267885,0.0
-0.006960065002449155,0.04409257103116167,0.20247354536933249,0.0
-0.0069681116304530655,0.0440834515194239,0.20244216352011724,0.0
-0.006939143769638988,0.04403302598393273,0.2025392594980311,0.0
-0.006919295420562676,0.04405287433300904,0.20255749852150662,0.0
-0.006966770525785747,0.044010763646455245,0.20248910218347338,0.0
-0.006961674328049937,0.04403275776299927,0.20249875813707807,0.0
-0.006933242909102787,0.04408774305435932,0.20256554514951053,0.0
-0.006891936885349378,0.04408693839155893,0.20256313116110936,0.0
-0.00691232167629262,0.04406601715874876,0.20252397090482366,0.0
-0.006942630641774016,0.04407540489141999,0.2025051954394812,0.0
-0.006929756036967759,0.044083719740357366,0.20251726538148707,0.0
-0.006941825978973625,0.04404670525153938,0.2025030496720135,0.0
-0.00693780266497167,0.04403946328633586,0.20255052477723656,0.0
-0.00693270646723586,0.04411322404303837,0.20259183080098997,0.0
-0.006915808548427648,0.04416284491572915,0.20263796480154572,0.0
-0.006944239967374798,0.04409364391489552,0.2026411834527473,0.0
-0.006922245850830776,0.044165258904130325,0.2026189211152698,0.0
-0.0069286831532339044,0.04416338135759608,0.20257144601004673,0.0
-0.006909639466957983,0.04413950969451781,0.20262079866180405,0.0
-0.006894887315617479,0.044208978916284905,0.20268007548809952,0.0
-0.006904006827355246,0.044203882718549095,0.20263501437127762,0.0
-0.006913126339093011,0.04418376614853932,0.20257734687058293,0.0
-0.006919831862429603,0.044160162706394515,0.20259504945219153,0.0
-0.006904811490155637,0.044138973252650884,0.20263528259221109,0.0
-0.006901861059887536,0.04414675165972133,0.20261033804539896,0.0
-0.006918222536828821,0.04412609864784463,0.20254274637016612,0.0
-0.006934047571903178,0.044132535950247756,0.20254891545163578,0.0
-0.006917149653094966,0.04415157963652368,0.20262723596420718,0.0
-0.006889254676014742,0.04414138724105206,0.2026588860343559,0.0
-0.006908566583224128,0.04414433767132016,0.20262509019673947,0.0
-0.006937534444038206,0.044085060845024684,0.20255079299817003,0.0
-0.006924123397365022,0.04403946328633586,0.2025872710451211,0.0
-0.006895155536550943,0.0440775506588877,0.20268919499983729,0.0
-0.006898910629619434,0.04409981299636519,0.2026500347435516,0.0
-0.006905347932022564,0.044068967589016864,0.20259370834752422,0.0
-0.006887108908547032,0.04404965568180748,0.20260846049886472,0.0
-0.006869674547871893,0.044028198007130384,0.20260846049886472,0.0
-0.0068876453504139595,0.044060384519146026,0.202584320614853,0.0
-0.006910712350691838,0.04407540489141999,0.2025835159520526,0.0
-0.006909907687891447,0.0441108100546372,0.20261409313846745,0.0
-0.00692251407176424,0.044082110414756584,0.20264520676674924,0.0
-0.006934047571903178,0.04408962060089357,0.20264574320861617,0.0
-0.006931901804435469,0.04410866428716949,0.20259639055685885,0.0
-0.00692546450203234,0.044100349438232114,0.20264574320861617,0.0
-0.006919295420562676,0.04411295582210491,0.20265405805755354,0.0
-0.006953359479112563,0.04408157397288966,0.202624821975806,0.0
-0.006963551874584183,0.044088011275292785,0.20263689191781187,0.0
-0.006982059118993178,0.044113492263971835,0.20262911351074142,0.0
-0.006951213711644854,0.04417813350893658,0.2026425245574146,0.0
-0.006982059118993178,0.04414675165972133,0.2026336732666103,0.0
-0.007013172747274965,0.044141923682918985,0.20258539349858684,0.0
-0.007001102805269099,0.04418886234627513,0.20256232649830896,0.0
-0.006976962921257368,0.04412475754317731,0.20256071717270818,0.0
-0.006954164141912954,0.04408854771715971,0.2026425245574146,0.0
-0.006937266223104742,0.044149970310922895,0.20263796480154572,0.0
-0.006936461560304351,0.04418188860200507,0.20259344012659075,0.0
-0.006944776409241725,0.04413629104331625,0.20259880454526003,0.0
-0.00694075309523977,0.04413790036891703,0.20260175497552813,0.0
-0.006933242909102787,0.044145678775987476,0.20257225067284712,0.0
-0.006924928060165413,0.0442430429748348,0.202576810428716,0.0
-0.00690722547855681,0.04422024419549039,0.20257520110311522,0.0
-0.006913931001893402,0.04411161471743759,0.20256339938204282,0.0
-0.006935925118437424,0.044142728345719376,0.2025827112892522,0.0
-0.0069748171537896584,0.044189935230008984,0.20253791839336377,0.0
-0.0069560416884472,0.04418376614853932,0.2025532069865712,0.0
-0.0069302924788346865,0.04422185352109117,0.20256098539364165,0.0
-0.006954164141912954,0.04416123559012837,0.20250251323014656,0.0
-0.006975085374723122,0.04416284491572915,0.20253523618402913,0.0
-0.0069748171537896584,0.04411805201984072,0.20256688625417785,0.0
-0.006949336165110608,0.044095253240496304,0.2025776150915164,0.0
-0.006953091258179099,0.04403597641420083,0.20254462391670036,0.0
-0.006961942548983401,0.04407111335648457,0.20251055985815047,0.0
-0.006968648072319993,0.044126635089711555,0.20244806438065344,0.0
-0.006926805606699659,0.04408184219382312,0.20244430928758494,0.0
-0.006912858118159547,0.04404616880967245,0.20250573188134813,0.0
-0.006932170025368932,0.04411617447330647,0.20245450168305656,0.0
-0.006934584013770105,0.04408613372875854,0.2024024668219646,0.0
-0.0069235869554980945,0.04403812218166854,0.20242338805477478,0.0
-0.006890327559748596,0.04401425051859027,0.20242124228730707,0.0
-0.006907493699490274,0.044008617878987535,0.20236169724007813,0.0
-0.006930024257901223,0.04401934671632608,0.20235070018180612,0.0
-0.00691232167629262,0.04403088021646502,0.20235096840273958,0.0
-0.006885767803879714,0.04399869370444938,0.20236652521688048,0.0
-0.0069101759088249105,0.04396355676216564,0.20230671194871808,0.0
-0.006899178850552898,0.044018810274459155,0.20222329523841087,0.0
-0.006878257617742731,0.04398769664617737,0.2022128346220058,0.0
-0.006879866943343513,0.04400620389058636,0.20226460126216428,0.0
-0.00691232167629262,0.04399735259978206,0.20218413498212517,0.0
-0.0069294878160342955,0.044009422541787926,0.20212673570236395,0.0
-0.0069176860949618935,0.0440295391117977,0.20217850234252244,0.0
-0.006878257617742731,0.0441255622059777,0.20219674136599797,0.0
-0.006868869885071502,0.044131731287447365,0.20212137128369467,0.0
-0.006881208048010831,0.04411322404303837,0.20206370378299998,0.0
-0.006882817373611613,0.044135486380515856,0.20205726648059685,0.0
-0.006875575408408094,0.044093107473028595,0.2020717504110039,0.0
-0.006894082652817088,0.04405287433300904,0.20203500414311937,0.0
-0.006906420815756419,0.0440775506588877,0.20196660780508613,0.0
-0.006921441188030385,0.04407728243795424,0.20187836311797658,0.0
-0.0069160767693611114,0.044048046356206697,0.20195239209561255,0.0
-0.006897301304018652,0.04409954477543172,0.2019934298984325,0.0
-0.006904543269222173,0.04409364391489552,0.20188989661811552,0.0
-0.006884963141079323,0.04410598207783485,0.20183035157088658,0.0
-0.006872624978139993,0.04410571385690139,0.20181586764047954,0.0
-0.006861896140801446,0.04409981299636519,0.20180889389620948,0.0
-0.006856263501198709,0.04408425618222429,0.20173620602324083,0.0
-0.006852240187196754,0.04411805201984072,0.20170643349962636,0.0
-0.006837756256789715,0.04412717153157848,0.20167746563881228,0.0
-0.006835074047455078,0.04413816858985049,0.20167639275507843,0.0
-0.006854117733730999,0.04409981299636519,0.20161175151011368,0.0
-0.006853313070930608,0.04415157963652368,0.20160370488210977,0.0
-0.006875575408408094,0.04409498501956284,0.201594585370372,0.0
-0.006847680431327871,0.044119393124508036,0.20164098759186122,0.0
-0.006855190617464854,0.04412395288037692,0.20160155911464206,0.0
-0.006864846571069547,0.044147019880654795,0.20155274290475167,0.0
-0.006842852454525525,0.04418296148573893,0.20154496449768122,0.0
-0.006842852454525525,0.0441226117757096,0.20153799075341117,0.0
-0.0068439253382593795,0.04408962060089357,0.20159056205637005,0.0
-0.006854117733730999,0.044132535950247756,0.201594585370372,0.0
-0.006847143989460944,0.04417089154373306,0.20157554168409608,0.0
-0.00681120238437681,0.044182425043872,0.20155354756755206,0.0
-0.006803155756372899,0.04414004613638474,0.201554084009419,0.0
-0.006792158698100888,0.044188594125341665,0.2015621306374229,0.0
-0.006781698081695805,0.044197981858012894,0.20153933185807849,0.0
-0.0067610450698191,0.04418376614853932,0.20158814806796888,0.0
-0.00676748237222223,0.04416847755533189,0.20159646291690625,0.0
-0.006789208267832788,0.04415157963652368,0.2015369178696773,0.0
-0.006808251954108709,0.044171159764666526,0.2015200199508691,0.0
-0.006818712570513793,0.04418913056720859,0.2015414776255462,0.0
-0.006815762140245692,0.04414594699692094,0.20155140180008435,0.0
-0.0068380244777231786,0.04411590625237301,0.20152618903233877,0.0
-0.006850094419729044,0.04414353300851977,0.20149990338085932,0.0
-0.006832123617186978,0.044231777695629325,0.20153584498594346,0.0
-0.006822467663582284,0.04420576026508334,0.2015414776255462,0.0
-0.006840438466124352,0.04417169620653345,0.20150178092739357,0.0
-0.00683373294278776,0.04423499634683089,0.20146449821764212,0.0
-0.006827832082251558,0.04420334627668217,0.20147549527591413,0.0
-0.006794304465568598,0.04418296148573893,0.20152055639273603,0.0
-0.0067768701048934584,0.04418671657880742,0.20149909871805893,0.0
-0.00681120238437681,0.044184839032273174,0.20147254484564603,0.0
-0.006807447291308318,0.04421970775362345,0.20148327368298458,0.0
-0.006784112070096978,0.044234728125897425,0.20151385086939944,0.0
-0.0068146892565118375,0.04416633178786418,0.20151841062526832,0.0
-0.006826490977584239,0.04418752124160781,0.20149990338085932,0.0
-0.006816030361179156,0.04418457081133971,0.201498562276192,0.0
-0.006811470605310273,0.0441403143573182,0.20158385653303346,0.0
-0.006820053675181111,0.04414138724105206,0.20155810732342094,0.0
-0.006836146931188933,0.04410946894996988,0.2014771046015149,0.0
-0.006851435524396363,0.04409444857769591,0.20147227662471257,0.0
-0.006831050733453122,0.04405716586794446,0.2015267254742057,0.0
-0.006792158698100888,0.04404402304220474,0.201565081067691,0.0
-0.006811738826243737,0.04402792978619692,0.20150124448552664,0.0
-0.006856799943065636,0.04404670525153938,0.20147951858991608,0.0
-0.006838560919590106,0.04411456514770569,0.20151599663686715,0.0
-0.0068213947798484295,0.0441108100546372,0.2015015127064601,0.0
-0.0068498261987955805,0.04407218624021843,0.2014446498685658,0.0
-0.006839902024257424,0.04412314821757653,0.20145618336870474,0.0
-0.006810934163443346,0.04413924147358435,0.20145698803150514,0.0
-0.006815762140245692,0.04409042526369396,0.20147039907817832,0.0
-0.006816030361179156,0.04408532906595815,0.20144357698483195,0.0
-0.006833464721854296,0.04407379556581921,0.2014092447053486,0.0
-0.006827832082251558,0.044106250298768315,0.201402539182012,0.0
-0.006785453174764296,0.044175451299601945,0.20141487734495134,0.0
-0.0067961820121028435,0.044117247357040326,0.20139207856560692,0.0
-0.006822467663582284,0.044109200729036416,0.20134621278598464,0.0
-0.00679591379116938,0.04408988882182703,0.20135720984425665,0.0
-0.006788940046899324,0.04404563236780552,0.2014248015194895,0.0
-0.0068028875354394355,0.04403597641420083,0.20139502899587503,0.0
-0.00679081759343357,0.044061725623813344,0.2013494314371862,0.0
-0.0067835756282300505,0.04406118918194642,0.20133897082078112,0.0
-0.0067961820121028435,0.04404885101900709,0.2013679386815952,0.0
-0.006779552314228095,0.04404053617006971,0.20137169377466368,0.0
-0.006790012930633179,0.044044291263138205,0.20133816615798072,0.0
-0.0067969866749032345,0.0440746002286196,0.20130597964596508,0.0
-0.006794304465568598,0.0440775506588877,0.20128318086662067,0.0
-0.006791354035300497,0.044135486380515856,0.2014129997984171,0.0
-0.006819517233314184,0.044195031427744794,0.20144947784536815,0.0
-0.006807983733175245,0.04422775438162737,0.20139181034467346,0.0
-0.006808251954108709,0.04419020345094245,0.20140388028667933,0.0
-0.006811470605310273,0.04420710136975066,0.20143177526375955,0.0
-0.006828636745051949,0.044233923463097034,0.20141782777521944,0.0
-0.006841243128924743,0.044303124463930664,0.20141112225188285,0.0
-0.006841511349858206,0.0443176083943377,0.20142158286828793,0.0
-0.00682434521011653,0.04432163170833966,0.2014366032405619,0.0
-0.006830782512519658,0.04434067539461558,0.20141621844961866,0.0
-0.006845266442926698,0.04437366656943161,0.20140951292628206,0.0
-0.006830514291586195,0.044404511976779935,0.20142560618228988,0.0
-0.006834805826521614,0.04431868127807156,0.2014218510892214,0.0
-0.0068423160126585975,0.044270401510048095,0.2014846147876519,0.0
-0.006833464721854296,0.04429829648712832,0.20148139613645033,0.0
-0.00684177957079167,0.04433799318528094,0.20147147196191217,0.0
-0.0068230041054492116,0.044401561546511835,0.20151465553219983,0.0
-0.006815762140245692,0.0444077306279815,0.20149507540405698,0.0
-0.006810129500642955,0.0444283836398582,0.20146074312457363,0.0
-0.006822467663582284,0.044437234930662504,0.2014551104849709,0.0
-0.006794572686502061,0.04446325236120848,0.2015052677995286,0.0
-0.006810934163443346,0.044417654802519656,0.20148193257831726,0.0
-0.006836146931188933,0.04439834289531027,0.20148702877605307,0.0
-0.006828636745051949,0.04443616204692865,0.20149963515992586,0.0
-0.006807715512241782,0.044397270011576416,0.20146288889204134,0.0
-0.006785989616631224,0.04436615638329463,0.20146422999670865,0.0
-0.006782770965429659,0.044410949279183064,0.20148649233418614,0.0
-0.006774187895558822,0.04445493751227111,0.2014572562524386,0.0
-0.006757021755817145,0.044434284500394404,0.20146047490364016,0.0
-0.006755412430216363,0.044392978476641,0.20145967024083977,0.0
-0.006756217093016754,0.04440638952331418,0.20142426507762257,0.0
-0.00673475941833966,0.044470494326412,0.20143016593815877,0.0
-0.006728858557803459,0.04448631936148636,0.20141970532175368,0.0
-0.006745488255678207,0.044399415779044125,0.2014129997984171,0.0
-0.006764800162887593,0.0443715208019639,0.20142372863575564,0.0
-0.006787867163165469,0.0443988793371772,0.20141648667055212,0.0
-0.006772042128091112,0.04445305996573686,0.2013923467865404,0.0
-0.006745220034744743,0.044444476895866024,0.20135989205359128,0.0
-0.006733150092738878,0.04438788227890519,0.20139637010054234,0.0
-0.006726981011269213,0.04442596965145703,0.20140736715881435,0.0
-0.006752730220881726,0.0444254332095901,0.20139046924000614,0.0
-0.006768823476889548,0.04433987073181519,0.20139395611214117,0.0
-0.006766945930355302,0.04431546262686999,0.2013641835885267,0.0
-0.006750584453414017,0.04440343909304608,0.20134111658824883,0.0
-0.006762117953552955,0.04441577725598541,0.20130463854129776,0.0
-0.006777138325826922,0.044360791964625355,0.2013035656575639,0.0
-0.006759703965151782,0.04433396987127899,0.20132153646010598,0.0
-0.0067650683838210565,0.044293736731259435,0.20128130332008642,0.0
-0.006752193779014799,0.04430553845233184,0.20126038208727626,0.0
-0.0067307361043377045,0.0443508677900872,0.2012786211107518,0.0
-0.0067441471510108885,0.044284885440455134,0.20124107018006687,0.0
-0.006760776848885637,0.0442577951261753,0.20123034134272832,0.0
-0.006779015872361168,0.044250821381905246,0.20124482527313536,0.0
-0.006774456116492285,0.04422560861415966,0.2012335599939299,0.0
-0.006784916732897369,0.0441794746136039,0.20121102943551894,0.0
-0.006781966302629268,0.04421434333495418,0.20118286623750525,0.0
-0.006758362860484464,0.04427496126591698,0.2011168838878732,0.0
-0.00672966322060385,0.04427683881245122,0.20116435899309626,0.0
-0.006717056836731057,0.044245725184169436,0.20119386329577726,0.0
-0.006728590336869995,0.04433504275501284,0.20115470303949157,0.0
-0.006759703965151782,0.04435810975529072,0.20108469737585755,0.0
-0.006742269604476643,0.04440424375584647,0.201110983027337,0.0
-0.006736905185807369,0.04437876276716742,0.2011463881905542,0.0
-0.006733954755539269,0.04442301922118893,0.2011182249925405,0.0
-0.006762117953552955,0.044454669291337644,0.20106619013144855,0.0
-0.006729931441537313,0.04451206857109887,0.20104902399170682,0.0
-0.006710619534327928,0.0445008032918934,0.20106538546864816,0.0
-0.006699354255122454,0.04450187617562725,0.20108979357359336,0.0
-0.006709814871527537,0.0445362084551106,0.20107289565478514,0.0
-0.006705791557525582,0.0445576661297877,0.20107745541065403,0.0
-0.006691039406185079,0.044553106373918815,0.20108898891079297,0.0
-0.006693721615519716,0.04453835422257831,0.20108630670145833,0.0
-0.006716788615797593,0.04453835422257831,0.20105572951504347,0.0
-0.006745488255678207,0.04452708894337284,0.20103614938690056,0.0
-0.006735295860206587,0.044527625385239765,0.2011042775040004,0.0
-0.006744683592877816,0.04448497825681904,0.20110025418999844,0.0
-0.006748170465012844,0.04454559618778183,0.20107745541065403,0.0
-0.006762386174486419,0.0445901208627368,0.2010702134454505,0.0
-0.006760240407018709,0.04458180601379943,0.20108469737585755,0.0
-0.00674280604634357,0.044560348339122334,0.20106270325931352,0.0
-0.006722153034466867,0.04457402760672898,0.20108416093399062,0.0
-0.006711155976194856,0.04461774761888356,0.20113109959734676,0.0
-0.006723225918200721,0.044634109095824846,0.2011345864694818,0.0
-0.006748706906879771,0.044582342455666356,0.20111581100413933,0.0
-0.0067374416276742965,0.04458770687433563,0.20116811408616475,0.0
-0.006741464941676252,0.04459950859540803,0.20113780512068336,0.0
-0.006754875988349436,0.04459333951393837,0.20113431824854833,0.0
-0.0067307361043377045,0.044622307374752444,0.20115416659762464,0.0
-0.0067441471510108885,0.04457188183926127,0.20112224830654246,0.0
-0.006747634023145916,0.04458609754873485,0.20111286057387123,0.0
-0.006723762360067649,0.04459065730460373,0.2011418284346853,0.0
-0.006718666162331839,0.04452521139683859,0.20116462721402972,0.0
-0.006702304685390554,0.044571345397394345,0.20116677298149743,0.0
-0.0066921122899189335,0.04461908872355088,0.20115255727202386,0.0
-0.006672263940842621,0.044627403572488254,0.20113700045788296,0.0
-0.006670654615241839,0.04461667473514971,0.20116596831869704,0.0
-0.006701500022590163,0.04453835422257831,0.201162481446562,0.0
-0.006696403824854353,0.04458180601379943,0.20114799751615497,0.0
-0.006704450452858264,0.044654493886768086,0.20114799751615497,0.0
-0.006724298801934576,0.04464081461916144,0.20115979923722738,0.0
-0.0067366369648739054,0.04464242394476222,0.20117991580723715,0.0
-0.006755680651149827,0.044615870072349316,0.20113431824854833,0.0
-0.006758094639551,0.04461640651421624,0.20114316953935263,0.0
-0.006728590336869995,0.04464188750289529,0.20118206157470486,0.0
-0.006699890696989381,0.04466119941010468,0.2012003005981804,0.0
-0.006704718673791727,0.04467756088704596,0.20115845813256006,0.0
-0.006715715732063738,0.04465503032863501,0.20120378747031542,0.0
-0.006692916952719325,0.044686412177850264,0.2012976647970277,0.0
-0.006695867382987426,0.04470867451532775,0.2012504579127381,0.0
-0.00668969830151776,0.044727986422537135,0.2012349010985972,0.0
-0.006668777068707593,0.04474944409721423,0.20128210798288682,0.0
-0.006665558417506029,0.044776266190560604,0.20127593890141715,0.0
-0.006659121115102901,0.04472986396907138,0.20127352491301598,0.0
-0.006633103684556924,0.04475400385308311,0.20129149571555804,0.0
-0.00664812405683089,0.04475883182988546,0.20126950159901402,0.0
-0.006664485533772174,0.04472959574813792,0.20125528588954045,0.0
-0.006674141487376867,0.04469070371278568,0.20125018969180464,0.0
-0.006674409708310331,0.04468077953824753,0.20122578158685944,0.0
-0.006670922836175303,0.04466656382877395,0.20121156587738587,0.0
-0.0066526838126997724,0.04464671547969764,0.20119761838884576,0.0
-0.006648660498697817,0.04462847645622211,0.20119976415631347,0.0
-0.006655097801100946,0.04458180601379943,0.20118313445843872,0.0
-0.006667704184973739,0.04456732208339239,0.2011565805860258,0.0
-0.00666850884777413,0.044571345397394345,0.201140487330018,0.0
-0.006630153254288823,0.04458985264180334,0.2011316360392137,0.0
-0.006638736324159661,0.04451287323389926,0.20112385763214324,0.0
-0.006640345649760443,0.04449222022202256,0.2011270762833448,0.0
-0.006639540986960052,0.04451475078043351,0.2011426330974857,0.0
-0.006637663440425806,0.04451689654790122,0.2011418284346853,0.0
-0.006624252393752621,0.04449651175695798,0.20110830081800235,0.0
-0.0066526838126997724,0.04448122316375055,0.20108684314332526,0.0
-0.0066561706848348,0.04448631936148636,0.20113995088815106,0.0
-0.006651610928965918,0.044483905373085185,0.20118286623750525,0.0
-0.0066475876149639625,0.044454132849470716,0.20112975849267944,0.0
-0.006667435964040275,0.04441631369785234,0.20110159529466576,0.0
-0.00666126688257061,0.04449570709415759,0.20108818424799257,0.0
-0.006632030800823069,0.04451099568736502,0.20104500067770487,0.0
-0.0066191561960168115,0.04442462854678971,0.20104419601490447,0.0
-0.006577850172263405,0.04445520573320457,0.20108174694558945,0.0
-0.006585628579333851,0.044470762547345465,0.20105063331730766,0.0
-0.006607890916811337,0.04445735150067228,0.20104661000330565,0.0
-0.006609232021478655,0.044450377756402225,0.20107423675945246,0.0
-0.006610036684279046,0.04446539812867619,0.20112466229494363,0.0
-0.006633640126423851,0.04449061089642178,0.20114075555095146,0.0
-0.006655097801100946,0.044489806233621386,0.20115926279536045,0.0
-0.006645441847496253,0.044415509035051946,0.20117160095829978,0.0
-0.0066298850333553596,0.044413899709451164,0.2011943997376442,0.0
-0.006640613870693907,0.04442382388398932,0.20118715777244067,0.0
-0.006634713010157706,0.04445171886106954,0.2011565805860258,0.0
-0.006618083312282957,0.04443052940732591,0.20116972341176553,0.0
-0.006638736324159661,0.04438144497650206,0.20115684880695928,0.0
-0.006664753754705638,0.04435140423195413,0.20117535605136827,0.0
-0.006658852894169437,0.04441577725598541,0.20122926845899447,0.0
-0.0066148646610813926,0.04443643026786211,0.20124777570340346,0.0
-0.0065939434282712255,0.04439968399997759,0.20126386895941129,0.0
-0.006611377788946365,0.0444106810582496,0.20125877276167548,0.0
-0.006630957917089214,0.044405316639580326,0.20122202649379095,0.0
-0.006617278649482566,0.04438788227890519,0.2012799622154191,0.0
-0.006575972625729159,0.044443940453999096,0.2013502360999866,0.0
-0.006574899741995304,0.044412558604783846,0.2013161720414367,0.0
-0.006581068823464969,0.04441014461638267,0.20131161228556782,0.0
-0.006593138765470834,0.04443696670972904,0.20130168811102966,0.0
-0.006581605265331896,0.04443106584919284,0.20131483093676938,0.0
-0.006593138765470834,0.04439163737197368,0.20128854528528994,0.0
-0.006595820974805471,0.044411753941983455,0.20127540245955022,0.0
-0.006593138765470834,0.044440990023730996,0.20127057448274788,0.0
-0.00658992011426927,0.0444616430356077,0.20129230037835844,0.0
-0.0065821417071988235,0.04446593457054312,0.20128505841315492,0.0
-0.006617546870416029,0.04442972474452552,0.20126842871528017,0.0
-0.0066400774288269794,0.044450377756402225,0.2012874724015561,0.0
-0.006645441847496253,0.04440826706984843,0.2013081254134328,0.0
-0.006607890916811337,0.04444474511679949,0.20137464420493179,0.0
-0.0066191561960168115,0.04450268083842764,0.2013368250533134,0.0
-0.0066290803705549685,0.04445493751227111,0.20140227096107854,0.0
-0.0065947480910716165,0.04445520573320457,0.20148273724111765,0.0
-0.006602526498142063,0.044406657744247645,0.20144116299643078,0.0
-0.0066207655216175935,0.04438171319743552,0.20141863243801983,0.0
-0.006611914230813292,0.04446808033801083,0.20143097060095916,0.0
-0.00661540110294832,0.0444468908842672,0.20144974606630162,0.0
-0.006597966742273181,0.044432943395727086,0.20145162361283586,0.0
-0.006574363300128377,0.044429992965458985,0.20147656815964798,0.0
-0.006591261218936589,0.044419800569987365,0.20146342533390826,0.0
-0.006588579009601952,0.04442087345372122,0.20145376938030357,0.0
-0.0065545149510520635,0.04445386462853725,0.20146583932230944,0.0
-0.006562561579055975,0.04449302488482295,0.2014631571129748,0.0
-0.006578386614130332,0.044470494326412,0.20143472569402765,0.0
-0.006585628579333851,0.044451182419202616,0.2014913203109885,0.0
-0.006577313730396477,0.04444045358186407,0.20151733774153446,0.0
-0.006579191276930723,0.044491952001089095,0.20151009577633094,0.0
-0.006585360358400388,0.0445214563037701,0.20148515122951882,0.0
-0.006589383672402343,0.04443696670972904,0.2014728130665795,0.0
-0.006550223416116645,0.044470494326412,0.20151143688099826,0.0
-0.00656658489305793,0.04451421433856658,0.20145832913617245,0.0
-0.006580264160664578,0.04447559052414781,0.20148917454352078,0.0
-0.006604672265609773,0.0444527917448034,0.20153611320687692,0.0
-0.006612718893613683,0.04448256426841787,0.20154603738141508,0.0
-0.006599576067873963,0.04450616771056267,0.20153155345100804,0.0
-0.006613523556414074,0.04445493751227111,0.20148273724111765,0.0
-0.006597966742273181,0.04448363715215172,0.2014964165087243,0.0
-0.006596357416672399,0.044492756663889486,0.20150929111353055,0.0
-0.006579459497864187,0.04446593457054312,0.20149105209005502,0.0
-0.006585360358400388,0.044443940453999096,0.2014712037409787,0.0
-0.006595284532938544,0.04448283248935133,0.2014416994382977,0.0
-0.006583214590932678,0.04449597531509105,0.20144009011269692,0.0
-0.006573826858261449,0.044463520582141945,0.2014231921938887,0.0
-0.006582409928132287,0.04447183543107932,0.20140522139134664,0.0
-0.006596625637605862,0.044435089163194795,0.2013663293559944,0.0
-0.006586165021200779,0.04443321161666055,0.20138376371666955,0.0
-0.006551832741717427,0.044425701430523566,0.2014484049616343,0.0
-0.006532789055441505,0.044399415779044125,0.20141246335655016,0.0
-0.006544322555580444,0.044404511976779935,0.20135694162332318,0.0
-0.006524742427437595,0.04441845946532005,0.20138671414693765,0.0
-0.00651562291569983,0.04439110093010675,0.20138322727480262,0.0
-0.006544858997447371,0.04435247711568798,0.2013494314371862,0.0
-0.006573022195461058,0.04433048299914396,0.20136364714665977,0.0
-0.00657168109079374,0.04434603981328485,0.20139690654240927,0.0
-0.006566853113991394,0.04432189992927312,0.20139771120520966,0.0
-0.006577313730396477,0.04435810975529072,0.20140522139134664,0.0
-0.006597966742273181,0.044396465348776025,0.20139583365867542,0.0
-0.006590456556136198,0.04442677431425742,0.2013722302165306,0.0
-0.006593406986404298,0.04443696670972904,0.20136767046066173,0.0
-0.006607622695877873,0.04441738658158619,0.20135694162332318,0.0
-0.006604404044676309,0.044440990023730996,0.20134218947198268,0.0
-0.006568462439592176,0.04452413851310474,0.2013531865302547,0.0
-0.0065545149510520635,0.044506435931496134,0.20140683071694743,0.0
-0.006571144648926813,0.0444254332095901,0.20137196199559715,0.0
-0.0065494187533162536,0.044443135791198705,0.20135989205359128,0.0
-0.006552369183584354,0.04444715910520066,0.2013376297161138,0.0
-0.006548077648648935,0.04445010953546876,0.20134218947198268,0.0
-0.0065301068461068685,0.04442301922118893,0.20131268516930168,0.0
-0.006542981450913125,0.04433772496434748,0.2013110758437009,0.0
-0.0065427132299796615,0.04440907173264882,0.2013376297161138,0.0
-0.0065478094277154715,0.04442865186079167,0.20131134406463436,0.0
-0.006540299241578488,0.044407462407048036,0.2012601138663428,0.0
-0.0065577336022536285,0.04440317087211262,0.20121558919138782,0.0
-0.006582678149065751,0.04436347417395999,0.20124053373819994,0.0
-0.006571412869860276,0.04443750315159597,0.20128827706435648,0.0
-0.006561756916255584,0.044444476895866024,0.2012874724015561,0.0
-0.006563098020922902,0.044451182419202616,0.20125662699420777,0.0
-0.006563366241856366,0.04444501333773295,0.2012327553311295,0.0
-0.0065754361838622315,0.04447183543107932,0.20126333251754436,0.0
-0.006566316672124466,0.04445171886106954,0.2012689651571471,0.0
-0.006545127218380835,0.04445654683787189,0.20125099435460503,0.0
-0.006546736543981617,0.04448792868708714,0.2012512625755385,0.0
-0.006558270044120556,0.044517432989768145,0.20120807900525084,0.0
-0.006562561579055975,0.04445654683787189,0.20121371164485358,0.0
-0.006536275927576533,0.04446244769840809,0.20125662699420777,0.0
-0.0065301068461068685,0.04450831347803038,0.20120942010991816,0.0
-0.006545395439314298,0.04445896082627306,0.2011855484468399,0.0
-0.006542445009046198,0.04447478586134742,0.2012874724015561,0.0
-0.006539762799711561,0.04448202782655094,0.20130893007623318,0.0
-0.006543786113713516,0.04448712402428675,0.20125823631980855,0.0
-0.006543517892780053,0.044488196908020604,0.20123087778459525,0.0
-0.006518305125034467,0.04449141555922217,0.20125448122674006,0.0
-0.006514818252899439,0.04446539812867619,0.2012526036802058,0.0
-0.006543517892780053,0.04439029626730636,0.2012904228318242,0.0
-0.00654915053238279,0.044377421662500104,0.20133038775091028,0.0
-0.006551028078917036,0.04438278608116938,0.20129659191329385,0.0
-0.00652366954370374,0.04438090853463513,0.2013354839486461,0.0
-0.006518841566901394,0.044367229267028484,0.20132368222757369,0.0
-0.006542445009046198,0.04432082704553927,0.2012992741226285,0.0
-0.006556392497586309,0.044321363487406194,0.20130571142503162,0.0
-0.006569803544259494,0.044274156603116586,0.20132100001823905,0.0
-0.00654915053238279,0.04434738091795217,0.20133816615798072,0.0
-0.006571949311727204,0.04434094361554904,0.2013102711809005,0.0
-0.006566048451191003,0.044370179697296584,0.20131885425077134,0.0
-0.006571412869860276,0.04432619146420854,0.20132073179730559,0.0
-0.006562293358122511,0.04438734583703826,0.20131483093676938,0.0
-0.0065419085671792705,0.044410412837316136,0.20129095927369112,0.0
-0.006544590776513907,0.04441282682571731,0.201325023332241,0.0
-0.006526888194905304,0.0444136314885177,0.20130490676223123,0.0
-0.00652876574143955,0.04437366656943161,0.20134245769291614,0.0
-0.0065166957994336845,0.044395660685975634,0.20143338458936033,0.0
-0.006518841566901394,0.044397270011576416,0.20138537304227033,0.0
-0.006509185613296701,0.044416850139719265,0.20136176960012553,0.0
-0.006507308066762456,0.0443390660690148,0.2013708891118633,0.0
-0.006489337264220389,0.04445654683787189,0.20144572275229966,0.0
-0.0064922876944884895,0.044442331128398314,0.20137464420493179,0.0
-0.006475389775680277,0.04439512424410871,0.20143123882189262,0.0
-0.006469220694210612,0.04433987073181519,0.20148327368298458,0.0
-0.006475389775680277,0.04433289698754513,0.20146476643857558,0.0
-0.006492824136355417,0.04437259368569776,0.20147361772937988,0.0
-0.0065099902760970925,0.044388418720772115,0.20147522705498067,0.0
-0.00651562291569983,0.04437795810436703,0.20149668472965776,0.0
-0.006498456775958154,0.04439029626730636,0.20150795000886323,0.0
-0.006533593718241896,0.044326459685142004,0.20149829405525854,0.0
-0.006540835683445416,0.04434657625515178,0.20152136105553642,0.0
-0.006496042787556981,0.04440907173264882,0.20155059713728396,0.0
-0.0065242059855706675,0.044376885220633176,0.20154630560234854,0.0
-0.006571412869860276,0.044376080557832785,0.2015436233930139,0.0
-0.006574899741995304,0.04438090853463513,0.2015111686600648,0.0
-0.006524742427437595,0.044375275895032394,0.20158385653303346,0.0
-0.0064973838922242995,0.044386272953304405,0.20162811298705496,0.0
-0.006503552973693964,0.04439700179064295,0.20160558242864401,0.0
-0.006507844508629383,0.04444501333773295,0.2015819789864992,0.0
-0.006493360578222344,0.04441148572104999,0.20160236377744245,0.0
-0.00648289996181726,0.04436454705769385,0.20165278931293362,0.0
-0.006484777508351506,0.044373934790365076,0.2016375007197262,0.0
-0.00648585039208536,0.044430797628259376,0.20161577482411563,0.0
-0.006466002043009048,0.04449141555922217,0.2016707601154757,0.0
-0.006446958356733127,0.044526284280572447,0.20172789117430345,0.0
-0.00645446854287011,0.04449141555922217,0.20168712159241697,0.0
-0.006468147810476757,0.04445386462853725,0.20173513313950697,0.0
-0.006465733822075584,0.04445171886106954,0.20178502223313122,0.0
-0.006439716391529607,0.04446727567521044,0.20177831670979463,0.0
-0.006402701902711618,0.04448068672188362,0.20176275989565373,0.0
-0.006401629018977764,0.044488196908020604,0.20178689977966546,0.0
-0.00640940742604821,0.044478004512548984,0.20178421757033083,0.0
-0.006412357856316311,0.044421946337455075,0.20179709217513708,0.0
-0.006395459937508099,0.04442892008172513,0.20180862567527602,0.0
-0.006402970123645082,0.04447532230321435,0.20181854984981418,0.0
-0.006402165460844691,0.04450107151282686,0.20180567524500792,0.0
-0.006385535762969943,0.044493293105756414,0.20178341290753044,0.0
-0.0063917048444396074,0.0444586926053396,0.20178931376806664,0.0
-0.0064327426472595515,0.04448712402428675,0.20180701634967524,0.0
-0.006435156635660725,0.044579392025398255,0.2018072845706087,0.0
-0.006425232461122568,0.0445901208627368,0.20181720874514686,0.0
-0.0064185269377859755,0.04461265142114775,0.20181479475674569,0.0
-0.006410748530715529,0.0446292811190225,0.20180916211714295,0.0
-0.006379634902433742,0.04468694861971719,0.20183866641982395,0.0
-0.006392777728173462,0.04468051131731406,0.20180245659380636,0.0
-0.006418795158719439,0.04469177659651954,0.20177670738419384,0.0
-0.006438911728729216,0.04469928678265652,0.20184161685009205,0.0
-0.00645446854287011,0.04469070371278568,0.2018767537923758,0.0
-0.006455809647537428,0.044683461747582164,0.20189633392051864,0.0
-0.006430865100725306,0.0446831935266487,0.20189901612985328,0.0
-0.006413698960983629,0.04475319919028272,0.20190303944385524,0.0
-0.006418258716852512,0.04474434789947842,0.2018759491295754,0.0
-0.006426305344856423,0.04476768312068976,0.2018708529318396,0.0
-0.006408066321380892,0.04476124581828663,0.201912158955593,0.0
-0.00638607220483687,0.04480013785363887,0.20198887014256361,0.0
-0.006374538704697932,0.04489616094781887,0.20193898104893937,0.0
-0.006395459937508099,0.044811939574711274,0.20191645049052842,0.0
-0.00637078361162944,0.044796114539636916,0.2020073773869726,0.0
-0.006365150972026703,0.04481918153991479,0.20200174474736987,0.0
-0.006345034402016926,0.04484090743552535,0.20196875357255384,0.0
-0.006332428018144133,0.04483151970285412,0.20197009467722116,0.0
-0.006333232680944524,0.04480872092350971,0.20201301002657535,0.0
-0.006361127658024748,0.04477868017896178,0.20204466009672406,0.0
-0.006378562018699887,0.044763659806687804,0.2020524385037945,0.0
-0.006386876867637261,0.04476097759735317,0.20204787874792562,0.0
-0.006405384112046255,0.044743275015744564,0.20206263089926613,0.0
-0.006410480309782065,0.0446979456779892,0.202067190655135,0.0
-0.006424964240189105,0.04465342100303423,0.2020221295383131,0.0
-0.006445080810198881,0.04469472702678764,0.2020229342011135,0.0
-0.00643703418219497,0.04475024876001462,0.20205512071312914,0.0
-0.006437302403128434,0.044693117701186856,0.20205377960846183,0.0
-0.006449908787001227,0.04467219646837669,0.20200925493350685,0.0
-0.006442398600864244,0.04464912946809881,0.20197653197962429,0.0
-0.006419331600586367,0.044641351061028366,0.20207416439940507,0.0
-0.006412357856316311,0.0446204298282182,0.20210259581835222,0.0
-0.006391436623506144,0.04462150271195205,0.20212083484182775,0.0
-0.006387949751371116,0.04463142688649021,0.2021307590163659,0.0
-0.006380439565234133,0.044629549339955964,0.20207845593434048,0.0
-0.006390631960705753,0.04459521706047261,0.202122712388362,0.0
-0.006401629018977764,0.04460755522341194,0.20216938283078467,0.0
-0.006423623135521786,0.044595485281406076,0.20214497472583948,0.0
-0.0064260371239229595,0.04462767179342172,0.2021736743657201,0.0
-0.006415844728451339,0.04465932186357043,0.2021994235753326,0.0
-0.006415576507517875,0.04466227229383853,0.20218735363332674,0.0
-0.006421477368054077,0.04466870959624166,0.2021876218542602,0.0
-0.006429792216991451,0.04469258125931993,0.20220371511026802,0.0
-0.006413698960983629,0.0447194033526663,0.20223321941294903,0.0
-0.00643917994966268,0.04466522272410663,0.20221471216854003,0.0
-0.0064335473100599425,0.04471296605026317,0.20223751094788445,0.0
-0.006436229519394579,0.04472396310853518,0.202240729599086,0.0
-0.006433815530993406,0.04473737415520836,0.20225467708762612,0.0
-0.006443203263664635,0.04470786985252736,0.20226433304123081,0.0
-0.006461978729007093,0.044796650981503844,0.20225172665735802,0.0
-0.00648799615955307,0.044753467411216184,0.20223026898268093,0.0
-0.0064772673222145225,0.0447282546434706,0.2023169043441897,0.0
-0.006483436403684187,0.04468372996851563,0.20228605893684137,0.0
-0.006479949531549159,0.0446322315492906,0.2023346069257983,0.0
-0.006448031240466981,0.0446979456779892,0.2023708167518159,0.0
-0.006464392717408266,0.044688021503451046,0.20235928325167696,0.0
-0.006479413089682232,0.04465985830543736,0.20238691000782372,0.0
-0.006477535543147986,0.04463893707262719,0.20236089257727774,0.0
-0.006479144868748768,0.044639741735427584,0.202344262879403,0.0
-0.006475121554746813,0.04466629560784049,0.20235472349580808,0.0
-0.006470025357011003,0.0446381324098268,0.2023700120890155,0.0
-0.006454200321936646,0.04465422566583462,0.2023834231356887,0.0
-0.006453663880069719,0.044659590084503896,0.20235633282140886,0.0
-0.006448299461400445,0.04467380579397747,0.2023426535538022,0.0
-0.006413430740050166,0.04468399818944909,0.2023716214146163,0.0
-0.006429255775124524,0.044626062467820936,0.20237135319368282,0.0
-0.006437570624061898,0.044647788363431494,0.20241453676397048,0.0
-0.00644722657766659,0.04469606813145496,0.20241775541517204,0.0
-0.0064571507522047464,0.04466039474730429,0.2024268749269098,0.0
-0.006460637624339774,0.04459414417673876,0.2024276795897102,0.0
-0.006461978729007093,0.04459065730460373,0.20242794781064366,0.0
-0.006469220694210612,0.0445901208627368,0.20239495663582763,0.0
-0.006464392717408266,0.044604068351276914,0.2023834231356887,0.0
-0.0064713664616783215,0.04458314711846675,0.20233594803046562,0.0
-0.006511331380764411,0.04454023176911256,0.20235418705394115,0.0
-0.006533593718241896,0.04451609188510083,0.20241373210117009,0.0
-0.00652366954370374,0.04455954367632194,0.20241560964770433,0.0
-0.006512672485431729,0.044569199629926635,0.20246549874132858,0.0
-0.006520182671568712,0.04454774195524954,0.20244860082252036,0.0
-0.0065032847527605004,0.044585829327801384,0.20242070584544014,0.0
-0.006487191496752679,0.0445724182811282,0.20247515469493327,0.0
-0.0064697571360775395,0.044548814838983396,0.2024912479509411,0.0
-0.0064523227754024,0.04454023176911256,0.20248776107880606,0.0
-0.00644722657766659,0.04455203349018496,0.20246630340412897,0.0
-0.006448299461400445,0.044545059745914904,0.2024571838923912,0.0
-0.006438375286862289,0.04454023176911256,0.20247139960186478,0.0
-0.006444007926465026,0.04456785852525932,0.20245074658998807,0.0
-0.006468416031410221,0.044555252141386524,0.20241051344996852,0.0
-0.006463319833674411,0.0446174793979501,0.20242660670597634,0.0
-0.006449640566067763,0.04460138614194228,0.20241453676397048,0.0
-0.006449640566067763,0.04457402760672898,0.202451283031855,0.0
-0.006468952473277148,0.04457590515326323,0.20244860082252036,0.0
-0.0064914830316880985,0.04460594589781116,0.20242928891531098,0.0
-0.0064839728455511145,0.044589584420869875,0.20245906143892545,0.0
-0.006461710508073629,0.04461533363048239,0.2025051954394812,0.0
-0.006490678368887707,0.044604873014077305,0.2024609389854597,0.0
-0.006500602543425864,0.04461265142114775,0.20245155125278846,0.0
-0.006485582171151897,0.0445812695719325,0.20255159766097042,0.0
-0.006483704624617651,0.04461104209554697,0.20259504945219153,0.0
-0.006497920334091227,0.044584488223134065,0.2025392594980311,0.0
-0.0065242059855706675,0.04456598097872507,0.20251511961401936,0.0
-0.006525547090237986,0.044620966270085126,0.20252772599789215,0.0
-0.00650543052022821,0.04461694295608317,0.20255079299817003,0.0
-0.006511331380764411,0.04461023743274658,0.2025414052654988,0.0
-0.006529570404239941,0.044645642595963785,0.2025266531141583,0.0
-0.006555856055719382,0.04461667473514971,0.20251726538148707,0.0
-0.006556392497586309,0.04459736282794032,0.2025982681033931,0.0
-0.0065770455094630136,0.04460326368847652,0.20262669952234025,0.0
-0.006560147590654802,0.044663076956638924,0.20259504945219153,0.0
-0.006556124276652846,0.04465851720077004,0.2025709095681798,0.0
-0.006562561579055975,0.0446713918055763,0.2025974634405927,0.0
-0.006558806485987483,0.04467058714277591,0.20261650712686863,0.0
-0.006564707346523684,0.044706796968793504,0.20259424478939114,0.0
-0.006560415811588265,0.044727986422537135,0.2026020231964616,0.0
-0.006559074706920947,0.04467595156144518,0.20262455375487254,0.0
-0.006562293358122511,0.04464886124716535,0.2026867810114361,0.0
-0.006606818033077482,0.044701164329190766,0.20262160332460444,0.0
-0.0066199608588172025,0.0446772926661125,0.20261918933620326,0.0
-0.006596625637605862,0.04470223721292462,0.20269455941850656,0.0
-0.006590992998003125,0.04463276799115753,0.2026639822320917,0.0
-0.00657972771879765,0.0446831935266487,0.20271977218625215,0.0
-0.00658187348626536,0.044671928247443225,0.20270421537211125,0.0
-0.006560147590654802,0.04466066296823775,0.20270448359304472,0.0
-0.006553173846384745,0.04465851720077004,0.2027157488722502,0.0
-0.006592602323603907,0.04461560185141585,0.2026950958603735,0.0
-0.006576509067596086,0.04465234811930038,0.20267685683689796,0.0
-0.0065636344627898295,0.04468828972438451,0.2027001920581093,0.0
-0.00657168109079374,0.044639205293560656,0.20273720654692728,0.0
-0.006592334102670443,0.04464027817729451,0.2027696612798764,0.0
-0.00661030490521251,0.0446204298282182,0.2027541044657355,0.0
-0.006558806485987483,0.04466012652637082,0.20275651845413667,0.0
-0.0065352030438426785,0.04463384087489138,0.2027726117101445,0.0
-0.006507576287695919,0.044668173154374734,0.20279889736162393,0.0
-0.0065107949388974835,0.04469258125931993,0.20275759133787052,0.0
-0.006528229299572623,0.04467514689864479,0.20279219183828734,0.0
-0.006519378008768321,0.044649397689032276,0.20284154449004466,0.0
-0.006504357636494355,0.044642692165695684,0.20292227899101722,0.0
-0.00650838095049631,0.044676219782378644,0.202905381072209,0.0
-0.0064930923572888806,0.044701164329190766,0.20289116536273544,0.0
-0.0064989932178250815,0.04465422566583462,0.20293086206088806,0.0
-0.006520987334369103,0.044620966270085126,0.20297029053810722,0.0
-0.006534130160108824,0.04460728700247848,0.202942395561027,0.0
-0.0065301068461068685,0.04469579991052149,0.20293810402609158,0.0
-0.006519646229701785,0.0446979456779892,0.2029563430495671,0.0
-0.006504625857427819,0.04467461045677786,0.20298584735224812,0.0
-0.006515354694766366,0.04467219646837669,0.20296653544503873,0.0
-0.006540835683445416,0.04462150271195205,0.2029432002238274,0.0
-0.006512940706365193,0.044645642595963785,0.20303680932960622,0.0
-0.006480217752482623,0.044703310096658476,0.20302259362013264,0.0
-0.006487191496752679,0.044663881619439315,0.20298504268944773,0.0
-0.006504625857427819,0.04463276799115753,0.2029912117709174,0.0
-0.006479144868748768,0.04469714101518881,0.20303117669000348,0.0
-0.006456614310337819,0.04469579991052149,0.20304485595761013,0.0
-0.006467074926742903,0.04464215572382876,0.20301535165492912,0.0
-0.006468416031410221,0.044671123584642834,0.2029912117709174,0.0
-0.006500870764359327,0.04461023743274658,0.20298799311971583,0.0
-0.006505966962095137,0.04455712968792077,0.20302178895733225,0.0
-0.006472439345412176,0.044618820502617416,0.20311566628404454,0.0
-0.006477535543147986,0.04463008578182289,0.20309394038843398,0.0
-0.006435693077527652,0.044725035992269034,0.20307060516722264,0.0
-0.00644427614739849,0.044715648259597805,0.20306255853921873,0.0
-0.0064646609383417295,0.04464296038662915,0.20307892001616,0.0
-0.006473512229146031,0.04462686713062133,0.2030687276206884,0.0
-0.006466002043009048,0.044644033270363,0.20305933988801717,0.0
-0.006453663880069719,0.04465824897983658,0.20308455265576275,0.0
-0.0064528592172693276,0.04460219080474267,0.20307221449282342,0.0
-0.006427914670457205,0.04456437165312429,0.20304029620174124,0.0
-0.006408870984181283,0.04455042416458418,0.20309850014430286,0.0
-0.006407798100447428,0.044580196688198646,0.20309206284189973,0.0
-0.006350935262553127,0.04468104775918099,0.20309420860936744,0.0
-0.006336987774013016,0.04461962516541781,0.20313390530752007,0.0
-0.006329209366942569,0.044629012898089036,0.20309876836523633,0.0
-0.0063270635994748595,0.04462203915381898,0.20300462281759057,0.0
-0.006323576727339832,0.04465556677050194,0.20295822059610136,0.0
-0.006325186052940614,0.044596826386073395,0.20307409203935767,0.0
-0.006364078088292848,0.044529771152707474,0.20315965451713258,0.0
-0.006371320053496368,0.04459360773487183,0.20314812101699364,0.0
-0.006318480529604022,0.04462123449101859,0.20313470997032046,0.0
-0.006311238564400502,0.044545059745914904,0.20308964885349856,0.0
-0.0063203580761382674,0.04451099568736502,0.20312317647018152,0.0
-0.006311506785333966,0.044625257805020545,0.20312585867951616,0.0
-0.006299705064261564,0.04465503032863501,0.20313792862152202,0.0
-0.006300241506128491,0.04456598097872507,0.20317038335447113,0.0
-0.006277979168651004,0.04451180035016541,0.20312505401671577,0.0
-0.006277979168651004,0.04449892574535915,0.2030421737482755,0.0
-0.0062608130289093285,0.044496243536024514,0.20285629664138516,0.0
-0.00624123290076648,0.04457992846726518,0.20300650036412482,0.0
-0.006211728598085474,0.044541572873779876,0.20307650602775884,0.0
-0.0061047084456334645,0.04439780645344334,0.203086430202297,0.0
-0.006210923935285083,0.04445171886106954,0.20310440100483906,0.0
-0.006251157075304636,0.044646447258764176,0.2029195967816826,0.0
-0.0062524981799719544,0.04482535062138446,0.20317816176154158,0.0
-0.006258130819574692,0.044755076736816966,0.2033407036472206,0.0
-0.006248743086903463,0.04457778269979747,0.203230464843567,0.0
-0.006204486632881955,0.044651543456499986,0.20322322287836347,0.0
-0.006172031899932849,0.04471618470146473,0.20319613256408364,0.0
-0.006196171783944581,0.04466790493344127,0.20318781771514627,0.0
-0.006166667481263576,0.04481757221431401,0.20331468621667462,0.0
-0.006138504283249888,0.044755613178683894,0.20329054633266289,0.0
-0.006190807365275307,0.044644301491296466,0.20317762531967465,0.0
-0.006226212528492514,0.04466522272410663,0.20324280300650632,0.0
-0.006173373004600168,0.044922178378364847,0.20330637136773724,0.0
-0.00612187458537514,0.04486477909860362,0.20317628421500733,0.0
-0.006122142806308604,0.04477948484176217,0.2030767742486923,0.0
-0.00613206698084676,0.04477009710909094,0.20305585301588214,0.0
-0.006123483910975922,0.04495597421598127,0.2030295673644027,0.0
-0.006140650050717598,0.04485807357526703,0.20315670408686448,0.0
-0.0061232156900424585,0.04480389294670736,0.2032623831346492,0.0
-0.006108463538701956,0.04488382278487954,0.20324924030890948,0.0
-0.006077081689486705,0.045015251042276744,0.20318513550581163,0.0
-0.006091029178026817,0.04499835312346853,0.20323529282036934,0.0
-0.006083787212823297,0.04493022500636876,0.20332997480988205,0.0
-0.0060803003406882696,0.04494122206464077,0.203293496762931,0.0
-0.006078422794154024,0.04493398009943725,0.20322107711089576,0.0
-0.006043822293737208,0.04487926302901066,0.2032594327043811,0.0
-0.006055355793876146,0.044929420343568366,0.20330583492587032,0.0
-0.0060762770266863135,0.04509357155484814,0.20330342093746914,0.0
-0.006082446108155979,0.044991915821065404,0.20324575343677442,0.0
-0.006074399480152068,0.044887846098881495,0.2032792810534574,0.0
-0.006018877746925086,0.045019810798145626,0.20342009704352584,0.0
-0.006038726096001398,0.04508552492684423,0.20334445874028909,0.0
-0.006100148689764582,0.04491949616903021,0.203211957599158,0.0
-0.006058306224144247,0.044990574716398085,0.20332326928654545,0.0
-0.006003320932784191,0.04502597987961529,0.20340480845031841,0.0
-0.006022901060927041,0.04499325692573272,0.2033171002050758,0.0
-0.006050259596140336,0.0449594610881163,0.2033162955422754,0.0
-0.006046236282138381,0.045078014740707245,0.20331441799574115,0.0
-0.006047309165872236,0.04499432980946658,0.20337959568257283,0.0
-0.006047309165872236,0.0449291521226349,0.20342385213659434,0.0
-0.006062329538146202,0.04489052830821613,0.20335277358922646,0.0
-0.00607091260801704,0.04487738548247641,0.20335947911256305,0.0
-0.006052137142674582,0.04480577049324161,0.20340105335724992,0.0
-0.006075740584819386,0.04479933319083848,0.20339944403164914,0.0
-0.006079763898821342,0.044815694667779765,0.2034072224387196,0.0
-0.006085932980291007,0.04479262766750189,0.2033841554384417,0.0
-0.006095588933895699,0.04478055772549602,0.2033887151943106,0.0
-0.006067693956815476,0.04480872092350971,0.2031757477731404,0.0
-0.006071449049883967,0.044806306935108536,0.20320364275022063,0.0
-0.0060569651194769284,0.04479209122563496,0.20358344359200523,0.0
-0.006043285851870281,0.04480523405137468,0.20351075571903657,0.0
-0.006034434561065979,0.04477251109749211,0.20342438857846126,0.0
-0.006019145967858549,0.04484224854019267,0.20331146756547305,0.0
-0.006035775665733298,0.04493934451810652,0.2033162955422754,0.0
-0.006057501561343856,0.044830178598186804,0.2034498695671403,0.0
-0.006066352852148157,0.04474729832974652,0.2035576943823927,0.0
-0.006029070142396706,0.04477251109749211,0.20356949610346511,0.0
-0.00601700020039084,0.04484224854019267,0.20341285507832232,0.0
-0.006020487072525868,0.04475802716708507,0.20339139740364523,0.0
-0.006009758235187321,0.04474220213201071,0.20343833606700137,0.0
-0.006051332479874191,0.04479343233030228,0.20331817308880965,0.0
-0.006065548189347766,0.04479852852803809,0.20326694289051808,0.0
-0.006082446108155979,0.044765805574155514,0.20356547278946316,0.0
-0.006050259596140336,0.04475293096934926,0.203526044312244,0.0
-0.006021023514392795,0.04481167135377781,0.20354508799851992,0.0
-0.006012708665455421,0.044861560447402055,0.20352792185877824,0.0
-0.006008417130520002,0.044903134692088925,0.20349680823049646,0.0
-0.0060207552934593315,0.044877653703409875,0.20348795693969216,0.0
-0.0060459680612049175,0.04488248168021222,0.20349037092809333,0.0
-0.00605562401480961,0.04497206747198909,0.20341714661325774,0.0
-0.0060786910150874875,0.044967239495186745,0.2033613566590973,0.0
-0.006080836782555197,0.044915472855028254,0.2034131232992558,0.0
-0.006083787212823297,0.04489160119194999,0.203459525520745,0.0
-0.006103099120032682,0.04497501790225719,0.20342653434592897,0.0
-0.00609639359669609,0.04493934451810652,0.20341392796205618,0.0
-0.0060985393641638,0.044892942296617305,0.20344638269500528,0.0
-0.006102830899099219,0.044881945238345294,0.20346569460221467,0.0
-0.0061106093061696655,0.04488435922674647,0.2034418229391364,0.0
-0.0061173148295062575,0.04489106475008306,0.2034270707877959,0.0
-0.006088883410559107,0.04486907063353904,0.20346649926501506,0.0
-0.006043554072803744,0.04486907063353904,0.20352497142851014,0.0
-0.006071449049883967,0.04480282006297351,0.20346381705568042,0.0
-0.006068498619615867,0.04485968290086781,0.20346167128821271,0.0
-0.006091833840827208,0.04486907063353904,0.2034514788927411,0.0
-0.006047309165872236,0.04489911137808697,0.20345550220674305,0.0
-0.006085128317490616,0.044850026947263116,0.2033975664851149,0.0
-0.006125897899377095,0.04489991604088736,0.20338066856630668,0.0
-0.006084323654690225,0.044930761448235684,0.20336403886843193,0.0
-0.006075472363885922,0.04496267973931786,0.20337959568257283,0.0
-0.0060400672006687165,0.04490286647115546,0.20326426068118345,0.0
-0.006039530758801789,0.04489347873848423,0.20324253478557286,0.0
-0.006049991375206873,0.04484466252859384,0.20348742049782523,0.0
-0.006023169281860505,0.04483554301685608,0.20347374123021858,0.0
-0.0060266561539955325,0.044810598470043955,0.20338683764777635,0.0
-0.0060585744450777105,0.04486477909860362,0.20335223714735953,0.0
-0.006070107945216649,0.044851368051930435,0.20338764231057674,0.0
-0.006043017630936817,0.04479584631870345,0.20353945535891718,0.0
-0.00603523922386637,0.044807648039775855,0.2035563532777254,0.0
-0.006071985491750895,0.04477760729522792,0.20336672107776657,0.0
-0.006073326596418213,0.04479075012096764,0.2032704297626531,0.0
-0.006053210026408437,0.04482347307485021,0.20337637703137126,0.0
-0.006065011747480839,0.044736033050541045,0.20341124575272154,0.0
-0.006050796038007264,0.04473254617840602,0.20337959568257283,0.0
-0.0060065395839857556,0.04479584631870345,0.20341500084579003,0.0
-0.005986154793042516,0.044808452702576246,0.20342519324126165,0.0
-0.005973548409169723,0.04478243527203027,0.20337208549643584,0.0
-0.00597623061850436,0.04467005070090898,0.20332058707721082,0.0
-0.005962283129964248,0.044758563608951994,0.20342841189246322,0.0
-0.005952358955426092,0.04481515822591284,0.203448528462473,0.0
-0.0059553093856941925,0.044757222504284676,0.20345121067180763,0.0
-0.00596603822303274,0.04481301245844513,0.20343779962513445,0.0
-0.00597113442076855,0.04482856927258602,0.20344530981127143,0.0
-0.005963087792764639,0.04485887823806742,0.20346569460221467,0.0
-0.005980790374373242,0.04481462178404591,0.20341875593885853,0.0
-0.005969793316101231,0.04477251109749211,0.2034699861371501,0.0
-0.005952090734492628,0.04484171209832574,0.20348634761409137,0.0
-0.005943239443688327,0.0448095255863101,0.20342143814819316,0.0
-0.005916685571275422,0.044817840435247475,0.2035289947425121,0.0
-0.005925000420212796,0.044861560447402055,0.20353382271931444,0.0
-0.005961478467163857,0.04481328067937859,0.20350592774223422,0.0
-0.0059813268162401696,0.04484144387739228,0.20347481411395243,0.0
-0.005949944967024919,0.044876849040609484,0.2034624759510131,0.0
-0.005962551350897712,0.04476902422535708,0.2034750823348859,0.0
-0.005965233560232349,0.04480442938857429,0.20342090170632623,0.0
-0.005961478467163857,0.04487711726154295,0.20343994539260216,0.0
-0.005964160676498494,0.04481810865618094,0.2035016362072988,0.0
-0.0059418983390210085,0.04477170643469172,0.20350565952130076,0.0
-0.0059494085251579915,0.04483151970285412,0.20347615521861975,0.0
-0.005954772943827265,0.04484090743552535,0.2034758869976863,0.0
-0.005954236501960338,0.04478753146976608,0.2034801785326217,0.0
-0.0059494085251579915,0.04477009710909094,0.20353087228904634,0.0
-0.005957723374095366,0.04480282006297351,0.2035024408700992,0.0
-0.005977303502238214,0.044749980539081156,0.2035142425911716,0.0
-0.0059679157695669855,0.044760709376419704,0.20353918713798372,0.0
-0.005955041164760729,0.04469714101518881,0.2034839336256902,0.0
-0.0059456534320895,0.044822131970182894,0.2035016362072988,0.0
-0.005923659315545477,0.04485807357526703,0.20350887817250232,0.0
-0.005912125815406539,0.0448095255863101,0.20353221339371366,0.0
-0.005914539803807712,0.04478163060922988,0.20354723376598763,0.0
-0.005948335641424137,0.044754272074016575,0.20353140873091327,0.0
-0.005925000420212796,0.0447859221441653,0.20350485485850037,0.0
-0.005907297838604193,0.044866656645137865,0.20348286074195635,0.0
-0.005905152071136483,0.04481730399338055,0.20346515816034774,0.0
-0.005882889733658998,0.044789409016300324,0.20351021927716964,0.0
-0.005878598198723579,0.0448154264468463,0.20350002688169802,0.0
-0.005882889733658998,0.04477465686495982,0.2034839336256902,0.0
-0.005863846047383076,0.044648593026231885,0.2034839336256902,0.0
-0.005863577826449612,0.04463089044462328,0.203478032765154,0.0
-0.0058721608963204506,0.04473066863187177,0.20346059840447886,0.0
-0.005866260035784249,0.044664686282239706,0.2034544293230092,0.0
-0.00585687230311302,0.04471377071306356,0.2034654263812812,0.0
-0.005906761396737265,0.04461667473514971,0.20342519324126165,0.0
-0.005923927536478941,0.04460540945594423,0.20350887817250232,0.0
-0.005919904222476986,0.04476312336482088,0.2034721319046178,0.0
-0.005906493175803802,0.04470009144545691,0.2034611348463458,0.0
-0.005927414408613969,0.0445724182811282,0.2034241203575278,0.0
-0.0059075660595376564,0.04456866318805971,0.203507537067835,0.0
-0.005891741024463299,0.044661735851971605,0.20353355449838098,0.0
-0.005847752791375255,0.04476178226015356,0.2034860793931579,0.0
-0.005846948128574864,0.044653689223967695,0.20347991031168824,0.0
-0.005852044326310674,0.04466441806130624,0.20351156038183696,0.0
-0.005885303722060171,0.044633304433024455,0.20345496576487612,0.0
-0.005878329977790115,0.04460728700247848,0.2034439687066041,0.0
-0.005883694396459389,0.04460728700247848,0.20344718735780568,0.0
-0.0058965690012656455,0.044580733130065574,0.20340802710151998,0.0
-0.005898714768733355,0.044617211177016634,0.20338522832217557,0.0
-0.005930633059815533,0.04460460479314384,0.20338522832217557,0.0
-0.0059477991995572094,0.04459521706047261,0.20336833040336735,0.0
-0.005908102501404584,0.0446351819795587,0.2033621613218977,0.0
-0.005920440664343913,0.0446381324098268,0.2032830361465259,0.0
-0.0059284872923478235,0.04460594589781116,0.2033310476936159,0.0
-0.005910516489805757,0.044585829327801384,0.2033436540774887,0.0
-0.005885303722060171,0.044527625385239765,0.20332702437961395,0.0
-0.005900055873400673,0.0445244067340382,0.2033125404492069,0.0
-0.005887717710461344,0.0446115785374139,0.2033398989844202,0.0
-0.005884230838326316,0.04458475644406753,0.20331763664694272,0.0
-0.0058721608963204506,0.04460433657221038,0.203344995182156,0.0
-0.0058630413845826845,0.0446233802584863,0.20334982315895836,0.0
-0.005861700279915366,0.04469982322452345,0.20330020228626758,0.0
-0.005885840163927098,0.04458475644406753,0.2033533100310934,0.0
-0.005875915989388942,0.04462794001435518,0.20346784036968238,0.0
-0.005885035501126707,0.0446469837006311,0.20342224281099355,0.0
-0.005905956733936874,0.04464296038662915,0.20338603298497596,0.0
-0.005912125815406539,0.04464322860756261,0.20338603298497596,0.0
-0.005885840163927098,0.04469258125931993,0.20341634195045735,0.0
-0.0058898634779290535,0.04466012652637082,0.20343645852046713,0.0
-0.005917490234075813,0.04460380013034345,0.20340963642712076,0.0
-0.005911321152606148,0.04464215572382876,0.203393006729246,0.0
-0.005897910105932964,0.04470706518972697,0.20336591641496618,0.0
-0.0059201724434104494,0.04459789926980725,0.20339247028737908,0.0
-0.005925268641146259,0.044568394967126244,0.2034219745900601,0.0
-0.00592821907141436,0.04464027817729451,0.2033828143337744,0.0
-0.005929291955148215,0.04461479718861546,0.20343163054366478,0.0
-0.00595074962982531,0.044596826386073395,0.20340454022938495,0.0
-0.005968452211433913,0.04464322860756261,0.203344995182156,0.0
-0.005961478467163857,0.04466280873570546,0.2033554557985611,0.0
-0.00592821907141436,0.04462364847941976,0.2034640852766139,0.0
-0.005934119931950561,0.044585829327801384,0.20343726318326752,0.0
-0.0059435076646217905,0.04458314711846675,0.2033879105315102,0.0
-0.00593116950168246,0.044577246257930546,0.20339649360138104,0.0
-0.0059217817690112315,0.04463008578182289,0.20346596282314813,0.0
-0.0059276826295474325,0.04459414417673876,0.20347937386982132,0.0
-0.0059225864318116226,0.044630354002756355,0.20345094245087417,0.0
-0.005934924594750952,0.04467648800331211,0.20344584625313836,0.0
-0.005936802141285198,0.0446890943871849,0.2034565750904769,0.0
-0.005923391094612014,0.04469338592212032,0.20345898907887808,0.0
-0.0058965690012656455,0.044679974875447136,0.2034573797532773,0.0
-0.005918294896876204,0.044659590084503896,0.20346676748594852,0.0
-0.00590488385020302,0.044754272074016575,0.2034498695671403,0.0
-0.005894423233797936,0.04473496016680719,0.20340695421778612,0.0
-0.005861700279915366,0.04476392802762127,0.20347025435808355,0.0
-0.005874843105655087,0.044711356724662386,0.20344584625313836,0.0
-0.005874843105655087,0.044705455864126185,0.20345469754394266,0.0
-0.0058622367217822935,0.04465905364263697,0.20344450514847104,0.0
-0.0058681375823184945,0.04469875034078959,0.20343323986926556,0.0
-0.005892009245396763,0.044711356724662386,0.20340534489218534,0.0
-0.0058630413845826845,0.044748371213480374,0.20348151963728903,0.0
-0.005854190093778383,0.04474166569014378,0.2034758869976863,0.0
-0.005869210466052349,0.04469365414305378,0.20344289582287026,0.0
-0.005889327036062126,0.04471082028279546,0.20340749065965305,0.0
-0.0059091753851384385,0.04469901856172306,0.2033133451120073,0.0
-0.005925268641146259,0.04461640651421624,0.20335733334509534,0.0
-0.005886644826727489,0.04464832480529842,0.2034498695671403,0.0
-0.0058957643384652545,0.04458797509526909,0.20339407961297987,0.0
-0.005955041164760729,0.04453754955977792,0.20331790486787618,0.0
-0.00590488385020302,0.04478672680696569,0.20344530981127143,0.0
-0.0058772570940562605,0.04479396877216921,0.2034034673456511,0.0
-0.005904347408336092,0.044688557945317973,0.20338040034537322,0.0
-0.005922049989944695,0.04465905364263697,0.2034986857770307,0.0
-0.005940289013420226,0.0446174793979501,0.20345791619514422,0.0
-0.005906761396737265,0.044699555003589984,0.20343994539260216,0.0
-0.005939216129686371,0.044674878677711326,0.20342519324126165,0.0
-0.0059671111067665945,0.044683461747582164,0.20340802710151998,0.0
-0.005952895397293019,0.0446772926661125,0.20340078513631646,0.0
-0.005946994536756818,0.044622307374752444,0.20341500084579003,0.0
-0.005957991595028829,0.044657980758903114,0.20343431275299942,0.0
-0.005972207304502404,0.04469043549185222,0.20339354317111294,0.0
-0.0059813268162401696,0.04465717609610272,0.20339542071764719,0.0
-0.0059797174906393875,0.04462579424688747,0.20338925163617752,0.0
-0.005970329757968159,0.04460648233967809,0.20339488427578026,0.0
-0.005967379327700058,0.044666832049707415,0.2033857647640425,0.0
-0.005989909886111007,0.044602727246609596,0.2033605519962969,0.0
-0.005980253932506315,0.04461023743274658,0.20341553728765696,0.0
-0.005949676746091455,0.04468775328251758,0.20341956060165892,0.0
-0.005989641665177544,0.044646447258764176,0.20335411469389378,0.0
-0.006009490014253857,0.04454452330404798,0.20335089604269221,0.0
-0.005962283129964248,0.044559007234455016,0.2035142425911716,0.0
-0.005964160676498494,0.04456276232752351,0.20349251669556104,0.0
-0.00597113442076855,0.04459280307207144,0.20343055765993093,0.0
-0.005949676746091455,0.04466280873570546,0.2033680621824339,0.0
-0.005954772943827265,0.04460353190940999,0.20334043542628713,0.0
-0.0059335834900836335,0.04466039474730429,0.20343189876459825,0.0
-0.005942166559954472,0.044636254863292556,0.20348125141635556,0.0
-0.005940825455287154,0.04465207989836691,0.20344316404380372,0.0
-0.005948872083291064,0.04466924603810859,0.20342546146219512,0.0
-0.00593841146688598,0.044669782479975516,0.20342358391566087,0.0
-0.005940825455287154,0.04468587573598334,0.20338549654310903,0.0
-0.005981863258107097,0.04458690221153524,0.20335143248455914,0.0
-0.005978108165038605,0.0445724182811282,0.2033605519962969,0.0
-0.005970866199835086,0.04463947351449412,0.20338656942684288,0.0
-0.00596898865330084,0.04466441806130624,0.20338844697337713,0.0
-0.005970061537034695,0.04475293096934926,0.20338147322910707,0.0
-0.005986959455842907,0.04470196899199116,0.20333372990295054,0.0
-0.005982936141840952,0.04469714101518881,0.20330851713520495,0.0
-0.005946726315823355,0.04469633635238842,0.20333963076348674,0.0
-0.005941630118087545,0.0446772926661125,0.20330798069333803,0.0
-0.005981058595306706,0.044646447258764176,0.20332997480988205,0.0
-0.005991250990778326,0.04466361339850585,0.20333238879828322,0.0
-0.0059864230139759795,0.04471162494559585,0.20331280867014037,0.0
-0.006006807804919219,0.04464242394476222,0.2032867912395944,0.0
-0.005996347188514136,0.04466441806130624,0.20332031885627735,0.0
-0.006018073084124695,0.04460245902567613,0.20326694289051808,0.0
-0.006018877746925086,0.04466441806130624,0.2032586280415807,0.0
-0.005990446327977935,0.04477385220215943,0.2032572869369134,0.0
-0.005992860316379108,0.044771169992824794,0.2032039109711541,0.0
-0.005976498839437823,0.044753467411216184,0.2031964007850171,0.0
-0.005953431839159947,0.04466522272410663,0.20323073306450046,0.0
-0.00592607330394665,0.04474086102734339,0.2032653335649173,0.0
-0.005923927536478941,0.04479638276057038,0.20321812668062766,0.0
-0.005945385211156036,0.044826691726051776,0.20317011513353767,0.0
-0.00595074962982531,0.04482400951671714,0.20316367783113454,0.0
-0.005939484350619835,0.04482052264458211,0.20317762531967465,0.0
-0.00597113442076855,0.04488221345927876,0.2031550947612637,0.0
-0.005970329757968159,0.04489106475008306,0.203134441749387,0.0
-0.005946994536756818,0.04488301812207915,0.20313685573778817,0.0
-0.00593116950168246,0.044859414679934345,0.20313605107498778,0.0
-0.005948335641424137,0.04483742056339032,0.20306309498108566,0.0
-0.005962819571831176,0.04483339724938837,0.20307650602775884,0.0
-0.0059327788272832424,0.044930761448235684,0.20312746800511694,0.0
-0.005930096617948606,0.04496267973931786,0.20309394038843398,0.0
-0.005947262757690282,0.04490179358742161,0.20310869253977448,0.0
-0.005934656373817488,0.04491708218062904,0.20313578285405431,0.0
-0.005927950850480896,0.04494631826237658,0.20310869253977448,0.0
-0.005918563117809667,0.04492834745983451,0.20308106578362772,0.0
-0.00591802667594274,0.04492191015743138,0.20304405129480974,0.0
-0.0059435076646217905,0.044920569052764064,0.202971899863708,0.0
-0.005934924594750952,0.044918423285296355,0.2029563430495671,0.0
-0.005891741024463299,0.04496750771612021,0.2029941622011855,0.0
-0.00588235329179207,0.04494068562277384,0.2030346635621385,0.0
-0.005917758455009276,0.04489696561061926,0.20298504268944773,0.0
-0.005920708885277377,0.0449055486804901,0.2029474917587628,0.0
-0.005899251210600282,0.04491869150622982,0.20295902525890175,0.0
-0.005901128757134528,0.04496375262305172,0.20294346844476086,0.0
-0.005945921653022964,0.044989770053597694,0.2028101626408294,0.0
-0.005970329757968159,0.04494953691357814,0.20292013322354951,0.0
-0.005946726315823355,0.04495463311131395,0.2029504421890309,0.0
-0.005933047048216706,0.044986283181462666,0.2028774860951288,0.0
-0.00593331526915017,0.04498225986746071,0.2028160635013656,0.0
-0.005924732199279332,0.04501122772827479,0.20278682741961807,0.0
-0.005921245327144304,0.045030539635484174,0.20278307232654957,0.0
-0.005945921653022964,0.04503456294948613,0.20275008115173354,0.0
-0.00597408485103665,0.0450133734957425,0.20274257096559656,0.0
-0.00596603822303274,0.04501069128640786,0.20275249514013471,0.0
-0.0059456534320895,0.044987624286129985,0.20273988875626192,0.0
-0.005944848769289109,0.045019006135345235,0.20273506077945957,0.0
-0.005942166559954472,0.045023297670280654,0.20270797046517974,0.0
-0.005943239443688327,0.044999962449069314,0.20264306099928153,0.0
-0.00593841146688598,0.044983332751194566,0.20265244873195276,0.0
-0.005911321152606148,0.04497635900692451,0.20265754492968857,0.0
-0.005927950850480896,0.0450045222049382,0.20262294442927176,0.0
-0.005971402641702013,0.04505655706603015,0.20258539349858684,0.0
-0.00596094202529693,0.04509893597351741,0.20254864723070232,0.0
-0.0059335834900836335,0.04509491265951546,0.2025532069865712,0.0
-0.005960137362496539,0.04510081352005166,0.20254569680043422,0.0
-0.005997688293181454,0.04506514013590099,0.2024904432881407,0.0
-0.005959064478762684,0.0451839620094254,0.20245101481092154,0.0
-0.0059561140484945835,0.045141314881004674,0.20246657162506243,0.0
-0.005944044106488718,0.045123075857529144,0.2025569620796397,0.0
-0.005957186932228438,0.04516411366034909,0.20250841409068276,0.0
-0.005967379327700058,0.045170550962752215,0.2024668398459959,0.0
-0.005942434780887936,0.045209174777170985,0.20249768525334422,0.0
-0.005969525095167768,0.04516089500914752,0.2024172189733051,0.0
-0.005963356013698103,0.045188789986227745,0.20240380792663193,0.0
-0.005955041164760729,0.04520085992823361,0.20246201186919355,0.0
-0.005956382269428047,0.04518825354436082,0.20248266488107025,0.0
-0.005964965339298885,0.045166259427816796,0.202469790276264,0.0
-0.00600466203745151,0.04513729156700272,0.20242446093850863,0.0
-0.006010026456120784,0.04513326825300076,0.20240300326383154,0.0
-0.005991250990778326,0.04517081918368568,0.20240273504289807,0.0
-0.005992055653578717,0.04513514579953501,0.2024083676825008,0.0
-0.006020487072525868,0.04508767069431194,0.20236142901914467,0.0
-0.0060325570145317335,0.04509223045018082,0.20233487514673176,0.0
-0.005991519211711789,0.04508150161284227,0.2023346069257983,0.0
-0.005982399699974024,0.045074259647638754,0.20235418705394115,0.0
-0.005969525095167768,0.04507747829884032,0.2023080530533854,0.0
-0.005964428897431958,0.045106446159654395,0.20225360420389227,0.0
-0.005968452211433913,0.04506540835683445,0.2022348287385498,0.0
-0.005949944967024919,0.04505789817069747,0.20227291611110165,0.0
-0.0059225864318116226,0.04511905254352719,0.20231636790232277,0.0
-0.005935461036617879,0.04510242284565244,0.2022503855526907,0.0
-0.005953968281026874,0.04508364738030998,0.20222329523841087,0.0
-0.005937338583152125,0.045119588985394116,0.2021943273775968,0.0
-0.005979449269705924,0.04505521596136283,0.20215168024917607,0.0
-0.005949944967024919,0.04519710483516512,0.2021787705634559,0.0
-0.005972743746369332,0.04511502922952523,0.20206450844580037,0.0
-0.005980790374373242,0.04508954824084618,0.20216643240051657,0.0
-0.005977839944105142,0.04513380469486769,0.20216965105171814,0.0
-0.005988568781443689,0.045166259427816796,0.2021278085860978,0.0
