0.10543389385150598,-0.09958077664146145,0.08851505381048368,0.0
0.10546527570072123,-0.09965453739816396,0.08866337998668909,0.0
0.10539982979295609,-0.09986509083093295,0.08862314684666954,0.0
0.10540921752562732,-0.09973446723633614,0.08858237726478306,0.0
0.10548378294513022,-0.09961349959534402,0.08854911786903356,0.0
0.10544837778191302,-0.09968860145671385,0.08854965431090049,0.0
0.10530729357091112,-0.09982888100491535,0.08867544992869496,0.0
0.10535020892026531,-0.09981466529544178,0.0886204646373349,0.0
0.10563049979573486,-0.0997081815848567,0.08852310043848759,0.0
0.10565866299374854,-0.09953303331530491,0.08864755495161473,0.0
0.10518820347645325,-0.09976236221341636,0.08863199813747384,0.0
0.1050844019752028,-0.0998101055395729,0.08864514096321356,0.0
0.10557095474850592,-0.0996298610722853,0.08853382927582613,0.0
0.1056656367380186,-0.0996298610722853,0.08852712375248954,0.0
0.10562379427239826,-0.09977765080662379,0.08866793974255797,0.0
0.1055696136438386,-0.0998484611330582,0.08860544426506094,0.0
0.10551114148034352,-0.09965480561909743,0.08864326341667932,0.0
0.10548297828232983,-0.09961430425814441,0.08863333924214116,0.0
0.10549692577086994,-0.09977496859728915,0.08862851126533881,0.0
0.10549022024753335,-0.09997157454151803,0.08854107124102965,0.0
0.10547815030552748,-0.09984792469119128,0.08866391642855602,0.0
0.10541109507216156,-0.09955100411784698,0.08860624892786133,0.0
0.1053215092803847,-0.09955261344344776,0.08864862783534859,0.0
0.10558597512077988,-0.09978435632996038,0.08870414956857557,0.0
0.10556612677170357,-0.09976048466688212,0.08862100107920183,0.0
0.10547412699152553,-0.09964568610735966,0.08863709433520965,0.0
0.10547546809619285,-0.09968135949151033,0.08867089017282608,0.0
0.10547090834032397,-0.09986267684253178,0.088689933859102,0.0
0.1054411358167095,-0.09974626895740854,0.08870817288257753,0.0
0.10542101924669972,-0.09963629837468843,0.08858452303225077,0.0
0.10550631350354117,-0.09963200683975301,0.08883450494223892,0.0
0.10544354980511067,-0.09968699213111307,0.0887349949759239,0.0
0.10543603961897369,-0.0995316922106376,0.08868886097536814,0.0
0.10542423789790129,-0.09964863653762776,0.08883718715157356,0.0
0.10540733997909307,-0.09977470037635569,0.0888058053023583,0.0
0.10531587664078196,-0.09973312613166882,0.08873150810378887,0.0
0.10521448912793269,-0.09975512024821284,0.08888653980333087,0.0
0.10540224378135726,-0.09978086945782536,0.08884308801210976,0.0
0.10571606227350977,-0.09964729543296044,0.08876476749953836,0.0
0.10568950840109687,-0.09953732485024033,0.08883182273290428,0.0
0.1056087739001243,-0.09973795410847117,0.08871112331284563,0.0
0.1055452055388934,-0.09993000029683116,0.08875242933659903,0.0
0.10549612110806955,-0.09973071214326765,0.08890692459427411,0.0
0.1054861969335314,-0.10004238486795244,0.08888653980333087,0.0
0.10539366071148643,-0.09970281716618742,0.0888036595348906,0.0
0.10538105432761363,-0.0994075059184439,0.08883101807010389,0.0
0.10552589363168402,-0.0996749221891072,0.08881680236063032,0.0
0.10546420281698737,-0.099890571819612,0.08882028923276535,0.0
0.10550550884074078,-0.09966687556110329,0.08885998593091797,0.0
0.10557819671370944,-0.09983558652825195,0.08888653980333087,0.0
0.10554949707382882,-0.10000268816979982,0.0888516710819806,0.0
0.10552106565488167,-0.09984765647025781,0.08883370027943853,0.0
0.1055098003756762,-0.09974170920153966,0.0887910531510178,0.0
0.10555968946930044,-0.09987930654040653,0.0887800560927458,0.0
0.10550363129420653,-0.0996993302940524,0.08881277904662836,0.0
0.10563666887720452,-0.09975646135288016,0.08875833019713524,0.0
0.10548163717766251,-0.09996084570417949,0.08865345581215094,0.0
0.10542289679323397,-0.09983639119105234,0.08896727430430344,0.0
0.10557605094624173,-0.09980232713250245,0.08890611993147372,0.0
0.10553876823649028,-0.09969423409631659,0.0887940035812859,0.0
0.10552562541075056,-0.09998283982072351,0.0888058053023583,0.0
0.10552133387581514,-0.09967331286350642,0.08876476749953836,0.0
0.10543952649110871,-0.09973205324793497,0.08882028923276535,0.0
0.10536630217627313,-0.0998396098422539,0.08882779941890233,0.0
0.10563854642373877,-0.09976155755061597,0.08880205020928982,0.0
0.10565517612161351,-0.09970013495685279,0.08875779375526831,0.0
0.10554976529476229,-0.10001931786767457,0.08865506513775172,0.0
0.10557900137650983,-0.09975592491101323,0.08868671520790043,0.0
0.1053244597106528,-0.099698525631252,0.08868215545203155,0.0
0.10568065711029256,-0.09962798352575106,0.08871487840591412,0.0
0.10567234226135519,-0.09986804126120105,0.08866337998668909,0.0
0.10552187031768206,-0.0997443914108743,0.0886330710212077,0.0
0.10541538660709698,-0.09980742333023826,0.08866874440535837,0.0
0.1054226285723005,-0.0998396098422539,0.0886352167886754,0.0
0.10549236601500106,-0.09972186085246335,0.08860034806732513,0.0
0.10552991694568598,-0.09967438574724027,0.08862985237000613,0.0
0.10552964872475251,-0.09973983165500541,0.08857298953211183,0.0
0.10552589363168402,-0.09985650776106211,0.08856789333437602,0.0
0.10539500181615374,-0.09968618746831268,0.08845175367018625,0.0
0.1056597358774824,-0.09980876443490558,0.08849279147300619,0.0
0.10553957289929067,-0.09985248444706016,0.08841205697203361,0.0
0.1052284366164728,-0.09997747540205423,0.08834017376186534,0.0
0.10541324083962927,-0.09970496293365513,0.08843378286764417,0.0
0.10575844118099703,-0.09965024586322854,0.08846409183312558,0.0
0.10558087892304407,-0.09972025152686256,0.08845094900738586,0.0
0.10560045905118692,-0.09986723659840066,0.08846784692619407,0.0
0.10553984112022413,-0.09992517232002882,0.08852658731062261,0.0
0.10535610978080151,-0.09982512591184686,0.08848367196126843,0.0
0.10553796357368989,-0.09974492785274122,0.08848849993807077,0.0
0.10554332799235916,-0.09995011686684094,0.0885429487875639,0.0
0.10548351472419676,-0.099765044422751,0.08852336865942105,0.0
0.10567824312189139,-0.09981198308610714,0.08861241800933099,0.0
0.10567395158695597,-0.09993643759923429,0.08858237726478306,0.0
0.10540573065349229,-0.09994582533190552,0.0885037885312782,0.0
0.10526571932622425,-0.0997924029579643,0.08849654656607468,0.0
0.1053872234090833,-0.09980608222557094,0.08853624326422731,0.0
0.10551087325941005,-0.09978730676022848,0.088516394915151,0.0
0.10551462835247855,-0.09969825741031854,0.08853838903169502,0.0
0.10567100115668787,-0.09979401228356508,0.0886381672189435,0.0
0.10558973021384838,-0.09995843171577831,0.08853221995022535,0.0
0.10543469851430637,-0.09985650776106211,0.08843190532110992,0.0
0.10565034814481117,-0.09972615238739876,0.08860168917199245,0.0
0.10550845927100888,-0.09991873501762569,0.08846355539125865,0.0
0.1058126218095567,-0.09974492785274122,0.08842815022804143,0.0
0.1057313508667172,-0.09977818724849072,0.08849091392647195,0.0
0.1056538350169462,-0.10004613996102094,0.08853007418275764,0.0
0.10546017950298542,-0.1000338017980816,0.08851505381048368,0.0
0.10553903645742374,-0.0997679948530191,0.08841447096043478,0.0
0.10569192238949804,-0.09996325969258066,0.08852336865942105,0.0
0.10565437145881312,-0.09981171486517368,0.08848367196126843,0.0
0.10557873315557637,-0.09974573251554161,0.0884528265539201,0.0
0.10555673903903234,-0.09996835589031647,0.08840857009989858,0.0
0.10566322274961742,-0.10008959175224205,0.08845389943765396,0.0
0.10558999843478184,-0.09984041450505429,0.0884305642164426,0.0
0.10557953781837676,-0.1000855684382401,0.08836216787840936,0.0
0.1055363542480891,-0.09995387195990943,0.08844236593751502,0.0
0.10553581780622218,-0.09977550503915608,0.08847589355419798,0.0
0.10564444728427497,-0.09987608788920496,0.0884654329377929,0.0
0.10573564240165262,-0.10004667640288786,0.08838389377401992,0.0
0.10557122296943938,-0.09993026851776463,0.08841071586736629,0.0
0.1056648320752182,-0.09991256593615602,0.08831576565692015,0.0
0.10565356679601273,-0.09986965058680183,0.08834366063400037,0.0
0.10559670395811843,-0.09980661866743787,0.08828599313330568,0.0
0.10557175941130631,-0.099794548725432,0.08829859951717847,0.0
0.10562835402826715,-0.10008503199637317,0.08827285030756596,0.0
0.10543711250270754,-0.10012928845039468,0.0881824598529887,0.0
0.10566429563335128,-0.10000617504193485,0.0883205936337225,0.0
0.10565866299374854,-0.09999437332086245,0.08833588222692992,0.0
0.10561091966759201,-0.10005874634489373,0.08824871042355423,0.0
0.10553903645742374,-0.09995548128551021,0.08823154428381255,0.0
0.10541163151402849,-0.0999061286337529,0.08829994062184579,0.0
0.10564471550520843,-0.10004882217035557,0.08831952074998864,0.0
0.10575951406473089,-0.09990478752908558,0.0882835791449045,0.0
0.10560904212105776,-0.10002951026314619,0.08830906013358356,0.0
0.1057195491456448,-0.10016227962521071,0.08831522921505322,0.0
0.10570077368030234,-0.10016093852054339,0.08825568416782428,0.0
0.10568468042429452,-0.1000139534490053,0.08817897298085367,0.0
0.10569996901750195,-0.09994528889003859,0.08826641300516283,0.0
0.10562781758640022,-0.1000198543095415,0.08823020317914523,0.0
0.10557739205090905,-0.10000858903033602,0.0882784829471687,0.0
0.10545937484018503,-0.10015611054374104,0.08829538086597691,0.0
0.10523380103514207,-0.10022209289337311,0.08820284464393194,0.0
0.10563371844693642,-0.09998766779752585,0.08827633717970099,0.0
0.1059204466248091,-0.1000249505072773,0.0882806287146364,0.0
0.10575254032046083,-0.09996433257631451,0.08817253567845054,0.0
0.105773461553271,-0.10015047790413831,0.08826265791209434,0.0
0.10579143235581306,-0.10031167868514998,0.08827311852849942,0.0
0.1057726568904706,-0.10012875200852775,0.0881942615740611,0.0
0.10575683185539625,-0.09997962116952194,0.08816904880631551,0.0
0.10574637123899117,-0.10012580157825965,0.0882186696790063,0.0
0.10578150818127491,-0.10029370788260791,0.08822215655114132,0.0
0.1056921906104315,-0.10011265875251993,0.08815241910844077,0.0
0.10567126937762134,-0.10013411642719702,0.0883892581926892,0.0
0.10553823179462335,-0.10033850077849635,0.0883707509482802,0.0
0.10574422547152346,-0.10035781268570573,0.08827794650530177,0.0
0.10574047037845496,-0.10027493241726546,0.08823315360941333,0.0
0.10578177640220837,-0.1002768099637997,0.08826641300516283,0.0
0.10587511728705373,-0.10030282739434568,0.08817253567845054,0.0
0.10582469175156256,-0.10028190616153551,0.08818326451578909,0.0
0.10577748486727295,-0.10036961440677813,0.08829591730784384,0.0
0.10577292511140407,-0.10043962007041216,0.0882725820866325,0.0
0.1057490534483258,-0.10037980680224975,0.08822778919074406,0.0
0.10573644706445301,-0.1002835154871363,0.08822430231860903,0.0
0.10570560165710469,-0.10048521762910098,0.08828036049370294,0.0
0.1057195491456448,-0.10044069295414601,0.08829806307531154,0.0
0.10576300093686591,-0.10024489167271752,0.08819882132992998,0.0
0.10551838344554704,-0.10030497316181339,0.08822832563261099,0.0
0.10563210912133564,-0.1004141390817331,0.08830584148238199,0.0
0.10567851134282485,-0.10025159719605412,0.08834473351773423,0.0
0.10580135653035122,-0.10050828462937886,0.08834902505266964,0.0
0.10596684884629831,-0.1005399346995276,0.0883315906919945,0.0
0.10594860982282278,-0.10043506031454327,0.08831657031972054,0.0
0.10588396857785803,-0.10045517688455305,0.08833427290132914,0.0
0.10586036513571323,-0.10058526403728296,0.08840803365803165,0.0
0.10583971212383653,-0.10035942201130651,0.08842144470470484,0.0
0.10580189297221815,-0.10056031949047084,0.08843887906537998,0.0
0.10580645272808703,-0.10079715857471927,0.0884394155072469,0.0
0.10580537984435318,-0.10068370111986413,0.08841098408829975,0.0
0.10562245316773095,-0.10045893197762154,0.088431368879243,0.0
0.10561226077225933,-0.10057185299060978,0.08841849427443674,0.0
0.10579250523954692,-0.10051874524578394,0.08840588789056394,0.0
0.10574127504125536,-0.10068879731759994,0.08839596371602579,0.0
0.10587109397305178,-0.10079501280725156,0.08855153185743474,0.0
0.10579867432101658,-0.10091839443664485,0.0883922086229573,0.0
0.10567529269162329,-0.10068048246866257,0.08843297820484378,0.0
0.10563988752840608,-0.10069791682933771,0.08849332791487312,0.0
0.10598455142790691,-0.10062147386330056,0.08851505381048368,0.0
0.10594619583442161,-0.10081056962139245,0.08846301894939172,0.0
0.1058716304149187,-0.1009615780069325,0.08840508322776355,0.0
0.10587028931025139,-0.10081512937726134,0.08847562533326452,0.0
0.10587350796145295,-0.10058901913035145,0.08857781750891418,0.0
0.1058037705187524,-0.1007976950165862,0.08855421406676937,0.0
0.10577533909980524,-0.10074887880669581,0.08855287296210206,0.0
0.10574717590179156,-0.10058258182794833,0.08852658731062261,0.0
0.10565168924947849,-0.10060189373515771,0.0884587274144563,0.0
0.10581423113515748,-0.10080520520272318,0.08852175933382027,0.0
0.1058627791241144,-0.10093985211132195,0.08843458753044456,0.0
0.10581449935609094,-0.10073144444602067,0.08846328717032519,0.0
0.10565705366814776,-0.10055978304860391,0.08854750854343278,0.0
0.10573832461098726,-0.10072554358548447,0.08860356671852669,0.0
0.10587028931025139,-0.1008449019008758,0.08856038314823904,0.0
0.10578097173940798,-0.10066599853825553,0.08848045331006686,0.0
0.10573081442485027,-0.10059921152582307,0.08852041822915295,0.0
0.10575012633205966,-0.10073761352749033,0.08863199813747384,0.0
0.10577802130913988,-0.1009291232739834,0.08857647640424686,0.0
0.10572089025031212,-0.10082854042393452,0.08849815589167546,0.0
0.10579840610008312,-0.10060886747942777,0.08859203321838775,0.0
0.10583193371676608,-0.10074539193456078,0.08858774168345233,0.0
0.10565356679601273,-0.10090122829690318,0.0886116133465306,0.0
0.10560931034199122,-0.1007799924349776,0.08859552009052278,0.0
0.1056892401801634,-0.10082880864486798,0.08865050538188284,0.0
0.10569567748256653,-0.10092349063438066,0.08863628967240926,0.0
0.10600627732351747,-0.10080118188872123,0.088593910764922,0.0
0.10596604418349792,-0.10075880298123396,0.08864809139348166,0.0
0.105869484647451,-0.10059572465368805,0.08858479125318423,0.0
0.1058812863685234,-0.10062871582850408,0.08861858709080066,0.0
0.1058480269727739,-0.10083336840073687,0.08862582905600418,0.0
0.10579384634421424,-0.10093958389038848,0.08853221995022535,0.0
0.10573912927378765,-0.10078750262111458,0.08848367196126843,0.0
0.10570131012216927,-0.10078696617924765,0.08846677404246021,0.0
0.10583407948423379,-0.10093287836705189,0.08858613235785155,0.0
0.10579062769301267,-0.10083444128447072,0.08851880890355217,0.0
0.10579277346048038,-0.10078240642337877,0.08847669821699837,0.0
0.1058871872290596,-0.10078938016764882,0.08853919369449541,0.0
0.10590274404320049,-0.10082103023779754,0.08866364820762256,0.0
0.1058724350777191,-0.1009409249950558,0.08864809139348166,0.0
0.1057587094019305,-0.10080171833058815,0.08861697776519988,0.0
0.10581718156542558,-0.1007260800273514,0.08861402733493177,0.0
0.10580859849555474,-0.10088352571529458,0.08863199813747384,0.0
0.10558624334171335,-0.10099644672828278,0.08861590488146602,0.0
0.10556505388796972,-0.10089640032010083,0.08858157260198267,0.0
0.10589067410119463,-0.10073546776002262,0.08867196305655993,0.0
0.10577909419287373,-0.10086233626155094,0.08867866857989652,0.0
0.10567904778469178,-0.10099295985614776,0.08866525753322334,0.0
0.10547198122405782,-0.1011085630784706,0.08858640057878502,0.0
0.1057528085413943,-0.10076014408590128,0.08857593996237993,0.0
0.10605536175434134,-0.1006174505492986,0.08875377044126635,0.0
0.10574368902965653,-0.10092483173904798,0.088767449708873,0.0
0.10566912361015363,-0.10086823712208715,0.08868751987070082,0.0
0.10578740904181111,-0.10074217328335922,0.08870307668484172,0.0
0.10596899461376602,-0.10075907120216743,0.0886979804871059,0.0
0.10589147876399502,-0.10111768259020837,0.08866874440535837,0.0
0.10586412022878172,-0.10095996868133172,0.08871675595244836,0.0
0.1058155722398248,-0.10060833103756084,0.08871863349898261,0.0
0.1057579047391301,-0.1007282257948191,0.0887290941153877,0.0
0.1056980914709677,-0.10090283762250396,0.08875082001099825,0.0
0.10577399799513792,-0.1010251463681634,0.08869073852190239,0.0
0.10585821936824552,-0.10080869207485821,0.08862529261413725,0.0
0.1058783359382553,-0.1006713629569248,0.08878971204635049,0.0
0.10574261614592267,-0.10085268030794625,0.08881358370942875,0.0
0.1057136482851086,-0.10094280254159005,0.08876879081354032,0.0
0.10579330990234731,-0.10082505355179949,0.08869556649870473,0.0
0.1058037705187524,-0.10069121130600112,0.08866686685882412,0.0
0.10584427187970541,-0.1008419514706077,0.0886301205909396,0.0
0.10580913493742167,-0.10097016107680334,0.0887851522904816,0.0
0.10577185222767022,-0.10091115247144133,0.08868564232416658,0.0
0.10580457518155278,-0.1008331001798034,0.08859042389278697,0.0
0.10581101248395591,-0.10102380526349608,0.08868161901016462,0.0
0.10573403307605184,-0.10119224800971127,0.08871112331284563,0.0
0.10525391760515185,-0.10094360720439044,0.08872372969671842,0.0
0.10577319333233753,-0.10065875657305201,0.08868188723109809,0.0
0.10613260938317888,-0.10075746187656665,0.08876423105767144,0.0
0.10605670285900866,-0.10096345555346675,0.08871139153377909,0.0
0.10594807338095585,-0.1009505809486605,0.08868939741723507,0.0
0.105869484647451,-0.1007858932955138,0.08871139153377909,0.0
0.10578070351847452,-0.10078428396991301,0.08869637116150512,0.0
0.10574073859938843,-0.10086475024995212,0.08880741462795909,0.0
0.10577721664633949,-0.10095675003013016,0.08875001534819786,0.0
0.10567717023815754,-0.10075477966723201,0.08873740896432507,0.0
0.1058598286938463,-0.10067699559652754,0.08878059253461272,0.0
0.10596228909042943,-0.1009379745647877,0.08883450494223892,0.0
0.10586894820558407,-0.10098276746067614,0.08884228334930937,0.0
0.10595799755549401,-0.10077570090004218,0.08881867990716456,0.0
0.10583086083303223,-0.10072473892268408,0.0887851522904816,0.0
0.10582013199569368,-0.10084624300554312,0.08873955473179278,0.0
0.10579384634421424,-0.10098276746067614,0.08878381118581428,0.0
0.10573859283192072,-0.1008811117268934,0.08878461584861468,0.0
0.10578123996034144,-0.10075290212069776,0.08877844676714501,0.0
0.10583434770516725,-0.10081727514472905,0.08879883155808825,0.0
0.10583863924010267,-0.10096935641400295,0.08879024848821741,0.0
0.10581691334449211,-0.10077516445817525,0.08874035939459317,0.0
0.10576702425086787,-0.10093341480891882,0.08865586980055211,0.0
0.10581879089102636,-0.10069550284093653,0.08868778809163429,0.0
0.10584239433317116,-0.10081056962139245,0.08879293069755205,0.0
0.10582549641436295,-0.10082934508673491,0.0887518928947321,0.0
0.10581959555382675,-0.10058445937448257,0.08879802689528786,0.0
0.10557792849277597,-0.10068933375946687,0.08873258098752272,0.0
0.10558329291144525,-0.10086421380808519,0.08875537976686713,0.0
0.10592956613654686,-0.10083041797046877,0.08880982861636026,0.0
0.10573349663418491,-0.10073385843442184,0.08878407940674775,0.0
0.10555834836463313,-0.10062147386330056,0.08882994518637004,0.0
0.1057098931920401,-0.10089130412236502,0.08881465659316261,0.0
0.10610122753396363,-0.10087762485475837,0.08885113464011367,0.0
0.10614387466238435,-0.10071588763187977,0.08879319891848551,0.0
0.10603175831219654,-0.10069147952693458,0.08880821929075948,0.0
0.10598562431164077,-0.10085482607541396,0.08887876139626043,0.0
0.10594217252041965,-0.10089988719223586,0.08879641756968708,0.0
0.10584454010063887,-0.10075075635323005,0.0886891291963016,0.0
0.10588101814758993,-0.10070247658520659,0.08873177632472233,0.0
0.10590891312467016,-0.10090149651783664,0.08882350788396691,0.0
0.10580216119315161,-0.10100395691441977,0.08879641756968708,0.0
0.10583515236796764,-0.10086662779648636,0.08877281412754227,0.0
0.10577077934393636,-0.10081995735406368,0.08873258098752272,0.0
0.10583783457730228,-0.10097311150707144,0.08866284354482216,0.0
0.10594002675295194,-0.10085133920327893,0.0887430416039278,0.0
0.10585446427517703,-0.10081298360979363,0.08872051104551686,0.0
0.10585178206584239,-0.10083444128447072,0.08875537976686713,0.0
0.1059233970550772,-0.1010251463681634,0.08878086075554618,0.0
0.10586090157758016,-0.1009076655993063,0.08875028356913132,0.0
0.10554574198076033,-0.10072983512041989,0.08873875006899239,0.0
0.10570506521523776,-0.10069255241066843,0.08875001534819786,0.0
0.1060497291147386,-0.10080118188872123,0.088767449708873,0.0
0.10592822503187954,-0.10092429529718105,0.08881787524436417,0.0
0.10574717590179156,-0.10102112305416144,0.08876798615073993,0.0
0.1058657295543825,-0.10074110039962536,0.08867008551002568,0.0
0.10597087216030027,-0.10073868641122419,0.08878756627888278,0.0
0.10586143801944708,-0.1009564818091967,0.08884684310517825,0.0
0.1058155722398248,-0.10091115247144133,0.08876798615073993,0.0
0.10573564240165262,-0.10081191072605977,0.08873043522005501,0.0
0.10579438278608116,-0.10077489623724178,0.08866793974255797,0.0
0.10587914060105569,-0.1009682835302691,0.08876905903447378,0.0
0.10578687259994418,-0.10097525727453915,0.0888597177099845,0.0
0.10579679677448234,-0.10075477966723201,0.08882216677929959,0.0
0.10590730379906937,-0.10074029573682497,0.08876530394140529,0.0
0.10604356003326894,-0.10090444694810474,0.08877737388341116,0.0
0.10596094798576211,-0.1011144639390068,0.0887459920341959,0.0
0.1059115953340048,-0.10087547908729066,0.08869690760337205,0.0
0.10591347288053904,-0.10070703634107547,0.08878622517421546,0.0
0.10592393349694412,-0.10084731588927698,0.08879158959288473,0.0
0.10589577029893044,-0.1010584057639129,0.08877951965087887,0.0
0.10588074992665647,-0.10117159499783457,0.08871541484778105,0.0
0.10596336197416328,-0.10079233059791692,0.08879078493008434,0.0
0.105947000497222,-0.10078777084204804,0.08882350788396691,0.0
0.10586197446131401,-0.10099349629801468,0.08880902395355987,0.0
0.10578472683247647,-0.10091544400637675,0.08877200946474188,0.0
0.10559804506278575,-0.10077972421404413,0.08876423105767144,0.0
0.105880481705723,-0.10088352571529458,0.0887800560927458,0.0
0.10598401498603999,-0.10110212577606748,0.08881572947689646,0.0
0.10587860415918876,-0.10096077334413212,0.08873928651085931,0.0
0.10575414964606161,-0.10073627242282301,0.08863038881187306,0.0
0.10591481398520636,-0.10083980570314,0.08880821929075948,0.0
0.10609639955716128,-0.10099295985614776,0.08882297144209998,0.0
0.10598589253257423,-0.10086206804061748,0.08888600336146395,0.0
0.10587726305452144,-0.10074807414389542,0.08877093658100803,0.0
0.1059145457642729,-0.1007459283764277,0.08877147302287496,0.0
0.10598052811390496,-0.10092778216931608,0.08875028356913132,0.0
0.1058812863685234,-0.10090927492490709,0.08879909977902171,0.0
0.10570157834310273,-0.10080305943525547,0.08881626591876339,0.0
0.105821473100361,-0.10068852909666648,0.08881063327916065,0.0
0.10600332689324937,-0.10091785799477793,0.08878354296488082,0.0
0.1059743590324353,-0.10092992793678379,0.08878354296488082,0.0
0.10595692467176016,-0.10081673870286212,0.08870575889417635,0.0
0.10576300093686591,-0.10070140370147274,0.08875591620873406,0.0
0.10586009691477977,-0.10081405649352748,0.0888184116862311,0.0
0.10602853966099497,-0.100946825855592,0.08874706491792976,0.0
0.1058724350777191,-0.10077570090004218,0.08867357238216071,0.0
0.10589469741519658,-0.10068128713146296,0.0886478231725482,0.0
0.10577909419287373,-0.10101441753082485,0.08868671520790043,0.0
0.10591239999680518,-0.10107128036871915,0.08872292503391803,0.0
0.10594860982282278,-0.10091383468077597,0.08871273263844641,0.0
0.10564632483080921,-0.10051928168765087,0.08871434196404719,0.0
0.1059107906712044,-0.1007947445863181,0.0887556479878006,0.0
0.10615594460439022,-0.10085831294754899,0.08881143794196104,0.0
0.10600118112578166,-0.10080440053992279,0.08872024282458339,0.0
0.10594002675295194,-0.10068370111986413,0.08875752553433484,0.0
0.10593546699708306,-0.10079152593511653,0.08879373536035244,0.0
0.10590918134560362,-0.10098035347227496,0.0888184116862311,0.0
0.10594539117162122,-0.10096560132093446,0.08879024848821741,0.0
0.10585365961237664,-0.10078750262111458,0.0887733505694092,0.0
0.10584346721690502,-0.10081191072605977,0.08879507646501976,0.0
0.10589496563613005,-0.10103158367056653,0.08887178765199037,0.0
0.10590033005479932,-0.10117535009090306,0.08883370027943853,0.0
0.10583890746103614,-0.10074887880669581,0.08882028923276535,0.0
0.10589791606639815,-0.10073010334135335,0.08881760702343071,0.0
0.10580403873968586,-0.10094333898345698,0.0888398693609082,0.0
0.10584668586810658,-0.10102970612403228,0.08878461584861468,0.0
0.10598347854417306,-0.10082585821459988,0.08884818420984557,0.0
0.10587779949638837,-0.10080332765618893,0.08872158392925071,0.0
0.10579062769301267,-0.10097364794893837,0.0888841258149297,0.0
0.10602076125392453,-0.10106752527565066,0.08887983427999428,0.0
0.10601325106778753,-0.10090820204117323,0.0888369189306401,0.0
0.10591588686894021,-0.1008368552728719,0.08877656922061077,0.0
0.10600064468391474,-0.10093180548331804,0.08888305293119585,0.0
0.10595370602055859,-0.1009926916352143,0.0889447437458925,0.0
0.10587377618238641,-0.10097069751867027,0.0889018283965383,0.0
0.10563800998187184,-0.10098437678627692,0.08886239991931914,0.0
0.10563371844693642,-0.10082880864486798,0.08890290128027216,0.0
0.10621495320975223,-0.1010184408448268,0.08888144360559506,0.0
0.10623051002389312,-0.10102648747283072,0.08889324532666747,0.0
0.10581423113515748,-0.10084999809861162,0.08886588679145417,0.0
0.10594297718322004,-0.10076765427203827,0.08892435895494925,0.0
0.10601915192832374,-0.10103131544963306,0.08885274396571445,0.0
0.10596577596256446,-0.10108308208979155,0.08884228334930937,0.0
0.10595343779962513,-0.10096801530933563,0.08889995085000406,0.0
0.10593278478774842,-0.10078616151644726,0.08887929783812736,0.0
0.1060038633351163,-0.10097364794893837,0.08896325099030149,0.0
0.10594646405535507,-0.10108388675259194,0.08894152509469093,0.0
0.10589711140359775,-0.10092188130877988,0.08890665637334065,0.0
0.10586331556598133,-0.1009232224134472,0.08890933858267529,0.0
0.1059588022182944,-0.10106752527565066,0.08895976411816646,0.0
0.10600493621885015,-0.10114611400915552,0.08904934990994333,0.0
0.10594726871815546,-0.10099993360041781,0.08895895945536607,0.0
0.10588986943839424,-0.10083068619140223,0.08895493614136411,0.0
0.10583005617023183,-0.10104472649630625,0.08903137910740126,0.0
0.10599313449777775,-0.1011233152298111,0.08901957738632886,0.0
0.10600708198631786,-0.10099966537948435,0.08898041713004316,0.0
0.10592742036907915,-0.10099912893761742,0.08896325099030149,0.0
0.10591803263640792,-0.10100127470508513,0.08897317516483964,0.0
0.10586733887998329,-0.1010466040428405,0.08897237050203925,0.0
0.10589335631052926,-0.10096426021626714,0.08891604410601188,0.0
0.10575683185539625,-0.10080627808645704,0.08902869689806663,0.0
0.10576729247180133,-0.10100529801908709,0.08911211360837383,0.0
0.10615943147652525,-0.1011927844515782,0.08905310500301182,0.0
0.10620502903521407,-0.10101790440295988,0.08906919825901964,0.0
0.10613314582504581,-0.1008457065636762,0.08906812537528579,0.0
0.10603202653313,-0.10084677944741005,0.08909199703836405,0.0
0.1059979624745801,-0.10118581070730814,0.0889565454669649,0.0
0.10602827144006151,-0.10120592727731792,0.08898765909524668,0.0
0.1059883065209754,-0.10092885505304994,0.0891086267362388,0.0
0.10595719289269362,-0.10087628375009106,0.08912445177131316,0.0
0.10597301792776798,-0.100994837402682,0.08911104072463998,0.0
0.10595665645082669,-0.10104365361257239,0.08905310500301182,0.0
0.1058568782635782,-0.10095996868133172,0.08896512853683573,0.0
0.10598213743950574,-0.10087950240129262,0.08910648096877109,0.0
0.10604409647513587,-0.10113994492768585,0.08914751877159104,0.0
0.10575039455299312,-0.10104982269404206,0.08912981618998243,0.0
0.10593761276455077,-0.10091973554131217,0.08903567064233668,0.0
0.10605509353340788,-0.1008870125874296,0.08915422429492763,0.0
0.1059145457642729,-0.10091973554131217,0.08924649229603913,0.0
0.10599232983497736,-0.10106216085698139,0.08922718038882975,0.0
0.10609425378969357,-0.1009017647387701,0.08918265571387478,0.0
0.10604356003326894,-0.10085697184288167,0.0891743408649374,0.0
0.10599635314897932,-0.10104392183350586,0.08924756517977299,0.0
0.1059115953340048,-0.1010820092060577,0.08923978677270254,0.0
0.1060038633351163,-0.10096855175120256,0.08917890062080629,0.0
0.10585365961237664,-0.10099832427481703,0.08921913376082584,0.0
0.1056146747606605,-0.10098625433281117,0.0893272267970117,0.0
0.10615728570905754,-0.1009320737042515,0.08939750068157919,0.0
0.10623265579136083,-0.10087306509888949,0.08933768741341679,0.0
0.10600574088165055,-0.10080600986552357,0.08924059143550293,0.0
0.10604302359140201,-0.10079635391191888,0.08937765233250287,0.0
0.10593412589241574,-0.10100047004228474,0.08937255613476706,0.0
0.10597087216030027,-0.10102300060069569,0.08927304616845204,0.0
0.10607145501034916,-0.10077731022564296,0.0893398331808845,0.0
0.1059381492064177,-0.1007201791668152,0.08936531416956355,0.0
0.10608459783608888,-0.10093985211132195,0.0894017922165146,0.0
0.1060585804055429,-0.10096881997213603,0.08943236940292947,0.0
0.10600279045138244,-0.10087601552915759,0.08935941330902734,0.0
0.10604946089380514,-0.10082263956339832,0.08934734336702148,0.0
0.10606394482421218,-0.10089827786663508,0.08941466682132086,0.0
0.10594485472975429,-0.10095004450679357,0.0893907951582426,0.0
0.10586438844971519,-0.1008301497495353,0.08928323856392366,0.0
0.10598642897444116,-0.10073063978322028,0.08938972227450874,0.0
0.10605080199847246,-0.10091463934357636,0.0893899904954422,0.0
0.10605965328927676,-0.10097767126294033,0.08937684766970248,0.0
0.10594485472975429,-0.10085911761034938,0.08939347736757723,0.0
0.10601190996312021,-0.1007496834694962,0.08941708080972204,0.0
0.10611061526663486,-0.10083122263326916,0.08940286510024846,0.0
0.10605616641714173,-0.10098840010027887,0.08932642213421131,0.0
0.10599635314897932,-0.100965333100001,0.08932534925047746,0.0
0.1059832103232396,-0.10086984644768793,0.08937979809997058,0.0
0.1059019393804001,-0.10079528102818502,0.08941117994918583,0.0
0.10593412589241574,-0.10095889579759787,0.08945463174040695,0.0
0.10583139727489915,-0.10110802663660368,0.08937926165810366,0.0
0.10564444728427497,-0.10064319975891112,0.08941600792598818,0.0
0.10590837668280323,-0.1005584419439366,0.08945409529854002,0.0
0.1062801308965839,-0.10074431905082692,0.0894173490306555,0.0
0.10616774632546262,-0.10078052887684452,0.08937684766970248,0.0
0.10612670852264268,-0.10061879165396592,0.08941359393758701,0.0
0.10608057452208693,-0.10070810922480933,0.08942271344932477,0.0
0.10607199145221609,-0.10089693676196776,0.08946696990334628,0.0
0.1058812863685234,-0.10087440620355681,0.08945811861254198,0.0
0.10586921642651753,-0.10072339781801676,0.08944363468213494,0.0
0.10623775198909664,-0.10064507730544536,0.08946670168241282,0.0
0.10620690658174832,-0.10074351438802653,0.08946187370561047,0.0
0.10608406139422195,-0.10086501847088558,0.08942459099585902,0.0
0.10606206727767793,-0.1007134736434786,0.08947260254294902,0.0
0.10607681942901843,-0.10062549717730251,0.08946750634521321,0.0
0.10606367660327871,-0.10083631883100497,0.08951095813643432,0.0
0.10605080199847246,-0.10098679077467809,0.08960617656781394,0.0
0.1061065919526329,-0.10074887880669581,0.08957881803260065,0.0
0.10602934432379536,-0.10064749129384654,0.08958042735820143,0.0
0.10596631240443138,-0.10077784666750988,0.08961556430048517,0.0
0.10599393916057814,-0.10096721064653524,0.08963702197516227,0.0
0.10596309375322982,-0.10091839443664485,0.08959383840487462,0.0
0.10594431828788736,-0.10091061602957441,0.0895954477304754,0.0
0.10604463291700279,-0.1007223249342829,0.0896582114289059,0.0
0.10603524518433156,-0.10078401574897955,0.08966491695224249,0.0
0.10603873205646659,-0.10067860492212832,0.08966759916157713,0.0
0.1060408778239343,-0.1006721676197252,0.0895895468699392,0.0
0.1056559807844139,-0.10085831294754899,0.08957452649766523,0.0
0.10582817862369759,-0.10092161308784642,0.08981538889591562,0.0
0.10601083707938636,-0.10085992227314977,0.08982531307045377,0.0
0.10608969403382469,-0.10070918210854318,0.08974296924388042,0.0
0.10625491812883832,-0.10073466309722223,0.08974484679041467,0.0
0.10618920400013972,-0.1008280039820676,0.08980170962830897,0.0
0.10611705256903799,-0.10086904178488754,0.08969415303399003,0.0
0.10605750752180905,-0.10065500147998352,0.08979205367470428,0.0
0.10601968837019067,-0.10062549717730251,0.08985481737313478,0.0
0.10598642897444116,-0.10073761352749033,0.0898199486517845,0.0
0.1060741372196838,-0.10081647048192866,0.08983899233806042,0.0
0.10602639389352726,-0.10069577106187,0.08978642103510154,0.0
0.10605160666127285,-0.10061047680502855,0.08981217024471405,0.0
0.10593841742735116,-0.10078964838858229,0.08983631012872578,0.0
0.10591588686894021,-0.10074646481829463,0.08989075897821891,0.0
0.10615004374385402,-0.10086233626155094,0.0899218726065007,0.0
0.10612778140637653,-0.10072768935295218,0.0898502576172659,0.0
0.10612483097610843,-0.10091490756450983,0.08981056091911327,0.0
0.10610846949916715,-0.10060457594449235,0.08999965667720516,0.0
0.1059979624745801,-0.1006115496887624,0.08999563336320321,0.0
0.10606474948701257,-0.10084677944741005,0.09011633278326187,0.0
0.10608486605702235,-0.10083792815660575,0.09007556320137539,0.0
0.1058332748214334,-0.10066224344518704,0.09003720760789008,0.0
0.10594565939255468,-0.10071883806214788,0.09006000638723449,0.0
0.10613073183664463,-0.1008575082847486,0.09007958651537734,0.0
0.10605214310313978,-0.10086716423835329,0.08997846722346153,0.0
0.10604275537046855,-0.1006831646779972,0.08991945861809952,0.0
0.10612563563890882,-0.10074941524856273,0.08998570918866505,0.0
0.10623319223322776,-0.10088298927342765,0.09011365057392723,0.0
0.1061006910920967,-0.10080574164459011,0.09006563902683723,0.0
0.1060977406618286,-0.10073654064375648,0.09005544663136561,0.0
0.1060977406618286,-0.1006839693407976,0.09005946994536757,0.0
0.1061487026391867,-0.10086019049408324,0.09012893916713466,0.0
0.10611463858063681,-0.10099349629801468,0.0900924611201836,0.0
0.10602451634699302,-0.10089023123863117,0.09002272367748304,0.0
0.10614011956931586,-0.1006330073634395,0.09006134749190181,0.0
0.10605133844033938,-0.10100207936788552,0.0900887060271151,0.0
0.10591132711307133,-0.10078964838858229,0.09021825673797806,0.0
0.1060770876499519,-0.10064373620077804,0.09013001205086851,0.0
0.10603363585873078,-0.10065714724745123,0.09004525423589399,0.0
0.10614146067398318,-0.10070059903867234,0.09016809942342036,0.0
0.10617069675573072,-0.10084517012180927,0.09016970874902114,0.0
0.1061191983365057,-0.10081325183072709,0.09013618113233818,0.0
0.10607386899875033,-0.10067994602679564,0.09012598873686656,0.0
0.10607306433594994,-0.10064910061944732,0.09023408177305242,0.0
0.10607091856848223,-0.10083336840073687,0.09020699145877259,0.0
0.10594807338095585,-0.10083578238913804,0.09020404102850449,0.0
0.10569058128483072,-0.10069201596880151,0.09020565035410527,0.0
0.10612992717384424,-0.10063488490997374,0.09025258901746142,0.0
0.1060644812660791,-0.10082988152860184,0.09030086878548488,0.0
0.10600869131191865,-0.10074270972522614,0.09022228005198002,0.0
0.10620234682587944,-0.10061986453769978,0.09020189526103678,0.0
0.10623828843096357,-0.1005820453860814,0.09024186018012287,0.0
0.10618249847680312,-0.10078857550484843,0.09016729476061996,0.0
0.10613260938317888,-0.10082451710993257,0.09026734116880192,0.0
0.10605670285900866,-0.10074163684149229,0.09022603514504851,0.0
0.10593841742735116,-0.10072447070175061,0.09021584274957689,0.0
0.10616586877892838,-0.10078830728391497,0.09033654216963555,0.0
0.10623533800069547,-0.10079501280725156,0.09029416326214829,0.0
0.10614521576705167,-0.10076684960923787,0.09019036176089784,0.0
0.10612241698770726,-0.10048199897789942,0.09017158629555538,0.0
0.10607091856848223,-0.10064615018917922,0.09029684547148292,0.0
0.10603524518433156,-0.10078079709777799,0.09024937036625985,0.0
0.10607252789408302,-0.1006890655385334,0.09020350458663756,0.0
0.10603551340526503,-0.10063703067744145,0.09017614605142427,0.0
0.1061457522089186,-0.10074029573682497,0.09024668815692521,0.0
0.1061554081625233,-0.1006448090845119,0.0903102565181561,0.0
0.10605965328927676,-0.10074190506242575,0.09021530630770996,0.0
0.10599179339311043,-0.10061798699116553,0.09023730042425399,0.0
0.10602853966099497,-0.10056756145567436,0.09024776104065907,0.0
0.1061760611744,-0.10068128713146296,0.09027431491307197,0.0
0.1061272449645096,-0.10072339781801676,0.09032098535549465,0.0
0.10610525084796558,-0.10055495507180157,0.09030676964602108,0.0
0.10590301226413396,-0.1005554915136685,0.09038804058886057,0.0
0.10570962497110664,-0.10070006259680542,0.09043229704288208,0.0
0.10617632939533346,-0.10070059903867234,0.09041030292633806,0.0
0.10633457974607703,-0.10061932809583285,0.09033385996030091,0.0
0.10612617208077575,-0.1005664885719405,0.09031615737869231,0.0
0.10607547832435112,-0.1006928206316019,0.09047118907823432,0.0
0.10617874338373463,-0.10075746187656665,0.09043176060101515,0.0
0.10609049869662508,-0.10040689711652959,0.09040252451926761,0.0
0.10597274970683451,-0.10040341024439456,0.09046797042703275,0.0
0.10602719855632765,-0.10057802207207944,0.09046260600836348,0.0
0.10620315148867983,-0.10078052887684452,0.09049076920637716,0.0
0.1061272449645096,-0.10049138671057065,0.0905149090903889,0.0
0.10597838234643725,-0.10037900213944936,0.09047467595036934,0.0
0.10602532100979341,-0.10051767236205009,0.09048138147370594,0.0
0.10615889503465832,-0.10059921152582307,0.0904668975432989,0.0
0.10614333822051743,-0.10054959065313229,0.09054629093960415,0.0
0.10613475515064659,-0.10057212121154324,0.09050552135771767,0.0
0.10613260938317888,-0.10063112981690525,0.09052536970679398,0.0
0.10611356569690296,-0.10051069861778003,0.09052805191612862,0.0
0.10612804962731,-0.10051150328058042,0.09045187717102493,0.0
0.10604543757980318,-0.10046268707069003,0.0904100347054046,0.0
0.1060674316963472,-0.10050560242004422,0.09056533462588007,0.0
0.10605455709154095,-0.10065902479398547,0.09063212163831252,0.0
0.10613931490651547,-0.10061289079342972,0.090624879673109,0.0
0.10603765917273274,-0.10044310694254718,0.09056694395148085,0.0
0.10589764784546468,-0.10053966647859414,0.09060985930083504,0.0
0.10584829519370736,-0.10078428396991301,0.09062219746377437,0.0
0.10626376941964262,-0.10061798699116553,0.09057794100975286,0.0
0.1062653787452434,-0.10043425565174288,0.09050418025305035,0.0
0.10617391540693229,-0.10052491432725363,0.09062648899870979,0.0
0.1061613090230595,-0.10062442429356866,0.0906930077902088,0.0
0.10613797380184815,-0.10066894896852363,0.09058840162615794,0.0
0.10613663269718084,-0.1005340338389914,0.09055219180014035,0.0
0.10607547832435112,-0.10049862867577417,0.0905894745098918,0.0
0.10617927982560156,-0.10064883239851385,0.09060798175430079,0.0
0.10615272595318866,-0.10067967780586218,0.09056157953281158,0.0
0.10604329181233547,-0.10062469251450212,0.09053019768359633,0.0
0.10592366527601066,-0.1005109668387135,0.09052536970679398,0.0
0.10604141426580123,-0.10057963139768022,0.09055219180014035,0.0
0.10620181038401251,-0.10081754336566251,0.09042532329861203,0.0
0.10617096497666419,-0.10056487924633972,0.09048781877610906,0.0
0.1060682363591476,-0.10045356755895227,0.09060315377749845,0.0
0.10612778140637653,-0.10060377128169196,0.09062917120804442,0.0
0.10590730379906937,-0.10089103590143156,0.0906160283823047,0.0
0.10594673227628854,-0.10071320542254514,0.09050364381118342,0.0
0.10623533800069547,-0.1005080164084454,0.09060851819616772,0.0
0.10615272595318866,-0.10050533419911076,0.09056560284681353,0.0
0.1062085159073491,-0.1007075727829424,0.09060342199843191,0.0
0.10612697674357614,-0.1006566108055843,0.09059081561455912,0.0
0.10617284252319843,-0.1005109668387135,0.09053395277666482,0.0
0.10620663836081486,-0.10057373053714402,0.09053502566039867,0.0
0.10620181038401251,-0.1008301497495353,0.09056238419561197,0.0
0.10602424812605955,-0.10069201596880151,0.09061817414977241,0.0
0.10575817296006357,-0.10048468118723405,0.09060154445189766,0.0
0.1059225923922768,-0.10054449445539648,0.09062943942897789,0.0
0.10637508110703005,-0.10061289079342972,0.09069944509261192,0.0
0.10633431152514357,-0.10071293720161167,0.09065143354552192,0.0
0.10622353627962307,-0.10063810356117531,0.09055755621880962,0.0
0.10620073750027866,-0.10049406891990528,0.09063587673138102,0.0
0.10621253922135106,-0.1006094039212947,0.09071231969741818,0.0
0.10621039345388335,-0.10077757844657642,0.09076891431437902,0.0
0.10613421870877966,-0.10073680886468994,0.09075094351183695,0.0
0.10609988642929631,-0.10046241884975657,0.0907128561392851,0.0
0.10611866189463877,-0.10052491432725363,0.09068496116220488,0.0
0.10614602042985206,-0.10071132787601089,0.09078313002385259,0.0
0.10608647538262313,-0.10061020858409508,0.09081880340800326,0.0
0.10610793305730022,-0.10045061712868417,0.09077508339584868,0.0
0.10597811412550379,-0.10057158476967631,0.09080351481479583,0.0
0.10613770558091469,-0.10064561374731229,0.0908686925016275,0.0
0.10617123319759765,-0.10061208613062933,0.09078634867505415,0.0
0.10600735020725133,-0.10055495507180157,0.09073806890703069,0.0
0.10619000866294011,-0.10038061146505015,0.09077106008184672,0.0
0.1062683291755115,-0.10061718232836514,0.09073324093022835,0.0
0.10614253355771704,-0.10064615018917922,0.09069086202274108,0.0
0.10611571146437067,-0.10053752071112643,0.09077159652371365,0.0
0.10617874338373463,-0.10063193447970564,0.09071044215088393,0.0
0.10614655687171899,-0.10057963139768022,0.09084428439668231,0.0
0.10585902403104591,-0.10055656439740235,0.09090946208351398,0.0
0.1057402021575215,-0.10038087968598361,0.09082792291974102,0.0
0.10619644596534324,-0.10044203405881333,0.09084401617574885,0.0
0.10636757092089306,-0.10063166625877218,0.09085930476895628,0.0
0.10617552473253307,-0.10076228985336899,0.09083838353614611,0.0
0.10621548965161916,-0.10052974230405598,0.09068657048780566,0.0
0.10622595026802424,-0.10036880974397774,0.09081022033813242,0.0
0.10621173455855067,-0.10055307752526732,0.09086896072256097,0.0
0.10615996791839218,-0.1006713629569248,0.0907520163955708,0.0
0.1061014957548971,-0.1005310834087233,0.09068174251100332,0.0
0.10611946655743916,-0.10039214496518908,0.09079224953559036,0.0
0.1062299735820262,-0.10063193447970564,0.09079332241932421,0.0
0.10620744302361525,-0.10073519953908916,0.09083489666401108,0.0
0.10615004374385402,-0.10053027874592291,0.0907490659653027,0.0
0.10610095931303017,-0.1004444480472145,0.09082711825694063,0.0
0.10612939073197732,-0.10058445937448257,0.0908000279426608,0.0
0.10614977552292056,-0.10072125205054905,0.0908000279426608,0.0
0.10613180472037849,-0.10069389351533575,0.09090919386258052,0.0
0.10596416663696367,-0.10067189939879173,0.09085340390842007,0.0
0.10611302925503603,-0.1005310834087233,0.0909116078509817,0.0
0.10628844574552128,-0.10065446503811659,0.09095479142126935,0.0
0.1062594778847072,-0.10061020858409508,0.09090677987417935,0.0
0.10604007316113391,-0.10049219137337104,0.09087298403656292,0.0
0.1059373445436173,-0.10055602795553542,0.09088559042043572,0.0
0.10614816619731977,-0.10072554358548447,0.09093387018845918,0.0
0.10623185112856044,-0.10063112981690525,0.0908332873384103,0.0
0.1061213441039734,-0.10046188240788964,0.09093387018845918,0.0
0.10601807904458989,-0.10053966647859414,0.09097490799127912,0.0
0.10605536175434134,-0.10069067486413419,0.09094808589793275,0.0
0.10598428320697345,-0.10072742113201871,0.09091187607191516,0.0
0.10613529159251352,-0.10055039531593268,0.09091938625805214,0.0
0.10631258562953301,-0.10053752071112643,0.09089175950190538,0.0
0.1061849124652043,-0.10072929867855296,0.09088612686230264,0.0
0.10624445751243324,-0.10071079143414396,0.09096256982833979,0.0
0.10609505845249396,-0.10054690844379766,0.09087942133896605,0.0
0.10596899461376602,-0.10047851210576439,0.09087271581562946,0.0
0.1062889821873882,-0.10052974230405598,0.09095425497940242,0.0
0.10618920400013972,-0.10074163684149229,0.0909175087115179,0.0
0.10614843441825324,-0.10058901913035145,0.09083865175707957,0.0
0.10622836425642541,-0.10031167868514998,0.09080566058226354,0.0
0.10620690658174832,-0.10051364904804813,0.09087217937376253,0.0
0.10618759467453893,-0.10067055829412441,0.09091241251378208,0.0
0.1060703821266153,-0.10080252299338854,0.09085957298988974,0.0
0.10613475515064659,-0.10047743922203053,0.09083784709427918,0.0
0.10622058584935497,-0.10037497882544741,0.09098590504955113,0.0
0.1062291689192258,-0.10063408024717335,0.09097329866567834,0.0
0.10608969403382469,-0.10044096117507947,0.09092984687445722,0.0
0.10610981060383447,-0.10028405192900322,0.09090034257177622,0.0
0.1062085159073491,-0.10039160852332216,0.09094352614206387,0.0
0.10601888370739028,-0.10059599287462151,0.09091294895564901,0.0
0.10609881354556246,-0.10058875090941799,0.09095264565380164,0.0
0.10610230041769748,-0.10038678054651981,0.09091777693245136,0.0
0.10607976985928654,-0.10035030249956875,0.09090624343231242,0.0
0.10626135543124145,-0.10055415040900118,0.09089980612990929,0.0
0.10596121620669557,-0.10061932809583285,0.09089846502524197,0.0
0.1058576829263786,-0.10044981246588378,0.0908273864778741,0.0
0.1063820548513001,-0.10036532287184272,0.09081585297773516,0.0
0.1063377983972786,-0.10050560242004422,0.09088371287390147,0.0
0.10618383958147044,-0.10059921152582307,0.0908901501763046,0.0
0.10618410780240391,-0.10043640141921059,0.09090570699044549,0.0
0.10616855098826301,-0.10033152703422629,0.0908236313848056,0.0
0.10616801454639609,-0.10050399309444344,0.09100763094516169,0.0
0.10615433527878944,-0.10061315901436318,0.09095076810726739,0.0
0.10613019539477771,-0.1005190134667174,0.09090624343231242,0.0
0.10616238190679335,-0.10043318276800903,0.0908990014671089,0.0
0.1061693556510634,-0.10052169567605204,0.09090356122297778,0.0
0.10612080766210648,-0.10078347930711262,0.09086145053642398,0.0
0.10609908176649592,-0.10046268707069003,0.09097678553781337,0.0
0.10612027122023955,-0.1004060924537292,0.0909196544789856,0.0
0.10613046361571117,-0.1002953172082087,0.09089390526937309,0.0
0.10601781082365641,-0.10047985321043171,0.09094459902579773,0.0
0.1058871872290596,-0.10042728190747283,0.09098966014261962,0.0
0.10621656253535301,-0.1003572762438388,0.09090677987417935,0.0
0.10622058584935497,-0.1004170895120012,0.09089470993217348,0.0
0.10617096497666419,-0.10051633125738277,0.09098080885181532,0.0
0.10609854532462899,-0.10055066353686615,0.09090517054857856,0.0
0.10617659761626692,-0.10040072803505992,0.09086332808295823,0.0
0.1061849124652043,-0.10037068729051199,0.09088827262977035,0.0
0.1061967141862767,-0.10051123505964696,0.09096149694460594,0.0
0.1059920616140439,-0.10063488490997374,0.09094808589793275,0.0
0.10564042397027301,-0.1003728330579797,0.09098939192168616,0.0
0.10604034138206737,-0.10033152703422629,0.09096096050273901,0.0
0.1064448185497306,-0.10050104266417534,0.09099985253809124,0.0
0.10641638713078345,-0.10060001618862346,0.09096256982833979,0.0
0.10626725629177765,-0.1003993869303926,0.0909920741310208,0.0
0.10620315148867983,-0.10032562617369009,0.09096391093300711,0.0
0.10602451634699302,-0.1005938471071538,0.09092099558365292,0.0
0.10609908176649592,-0.10078186998151184,0.09090248833924393,0.0
0.10619349553507514,-0.10057265765341017,0.09100360763115974,0.0
0.1061731107441319,-0.10048468118723405,0.09098510038675074,0.0
0.10617284252319843,-0.10028297904526937,0.09102962506170571,0.0
0.10620690658174832,-0.10054690844379766,0.09102050554996795,0.0
0.10615353061598905,-0.10060028440955693,0.09088961373443767,0.0
0.10614065601118279,-0.10035003427863529,0.09099851143342393,0.0
0.1060682363591476,-0.10055039531593268,0.09106449378305599,0.0
0.10610498262703212,-0.10075102457416352,0.09102050554996795,0.0
0.10606877280101452,-0.10043050055867439,0.09098268639834957,0.0
0.1061132974759695,-0.10035405759263724,0.09112752570241996,0.0
0.10625009015203597,-0.10043666964014406,0.0911331583420227,0.0
0.10611061526663486,-0.10062093742143363,0.09110740913241018,0.0
0.10612348987144112,-0.10061128146782894,0.09103364837570767,0.0
0.10611758901090491,-0.10039858226759221,0.09101809156156677,0.0
0.10614521576705167,-0.10040475134906188,0.09102586996863722,0.0
0.1061701603138638,-0.10057641274647866,0.09109426630667046,0.0
0.10589711140359775,-0.10060967214222816,0.09104384077117929,0.0
0.10578097173940798,-0.10049326425710489,0.09108595145773309,0.0
0.10598777007910848,-0.10041896705853545,0.09113047613268806,0.0
0.10586438844971519,-0.10044659381468221,0.0911500562608309,0.0
0.10631258562953301,-0.10052303678071936,0.09117312326110878,0.0
0.10647110420121005,-0.10048173075696595,0.09107683194599532,0.0
0.10625143125670329,-0.10046912437309316,0.0910666395505237,0.0
0.10618035270933542,-0.10042030816320277,0.091153006691099,0.0
0.10623185112856044,-0.1003942907326568,0.09119082584271739,0.0
0.10616667344172877,-0.1003875852093202,0.09108085525999728,0.0
0.10605831218460944,-0.10028539303367054,0.09111035956267828,0.0
0.1061723060813315,-0.10040931110493076,0.09109560741133778,0.0
0.10621575787255262,-0.10048199897789942,0.09113691343509119,0.0
0.10610390974329827,-0.10043210988427517,0.09118653430778197,0.0
0.10606287194047832,-0.10025481584725568,0.09113691343509119,0.0
0.1060770876499519,-0.10043479209360981,0.09111733330694834,0.0
0.10613851024371508,-0.10055119997873307,0.09111545576041409,0.0
0.10615031196478748,-0.10053483850179179,0.09103767168970962,0.0
0.10611785723183838,-0.10046778326842584,0.09108997477173504,0.0
0.10604141426580123,-0.10030819181301495,0.09110955489987789,0.0
0.10610230041769748,-0.10048253541976634,0.0910902429926685,0.0
0.10611383391783642,-0.10059518821182112,0.09104276788744543,0.0
0.10620449259334715,-0.10037953858131629,0.09101192248009711,0.0
0.10622943714015927,-0.10031087402234959,0.09103901279437694,0.0
0.10620422437241368,-0.10051364904804813,0.09107951415532996,0.0
0.10610498262703212,-0.1006692171894571,0.09101594579409907,0.0
0.1058871872290596,-0.10060484416542581,0.09101514113129867,0.0
0.10590515803160166,-0.10031355623168423,0.09108782900426733,0.0
0.10633431152514357,-0.1004023373606607,0.09112806214428688,0.0
0.10621548965161916,-0.10060538060729274,0.09109426630667046,0.0
0.10610310508049788,-0.10045866375668808,0.09111706508601487,0.0
0.10612188054584033,-0.10040180091879378,0.09107334507386029,0.0
0.106301588571261,-0.10049675112923992,0.09113396300482308,0.0
0.10629836992005944,-0.1005517364206,0.09112162484188376,0.0
0.10610686017356637,-0.10042808657027322,0.09104464543397968,0.0
0.10617927982560156,-0.10032294396435545,0.09103096616637303,0.0
0.10605133844033938,-0.10039804582572529,0.09110955489987789,0.0
0.10615996791839218,-0.10055629617646888,0.0911117006673456,0.0
0.10624392107056631,-0.10051633125738277,0.09107602728319493,0.0
0.10618410780240391,-0.10037658815104819,0.09108192814373113,0.0
0.10620207860494597,-0.10030953291768227,0.09114227785376046,0.0
0.10614253355771704,-0.10060886747942777,0.09114737405149627,0.0
0.10609023047569162,-0.10059867508395615,0.09105054629451588,0.0
0.10605482531247441,-0.10052357322258629,0.09107200396919297,0.0
0.10608218384768771,-0.1003189206503535,0.09125707641328291,0.0
0.10605616641714173,-0.10052223211791897,0.09128658071596392,0.0
0.10601137352125328,-0.10051150328058042,0.09121925726166454,0.0
0.10613475515064659,-0.10034654740650026,0.09119672670325359,0.0
0.10616881920919648,-0.10057212121154324,0.0911685635052399,0.0
0.1062321193494939,-0.10052893764125559,0.09122891321526923,0.0
0.10623426511696162,-0.10045437222175266,0.0911921669473847,0.0
0.1061065919526329,-0.10034118298783098,0.09117500080764303,0.0
0.10611383391783642,-0.10030550960368032,0.0912409831572751,0.0
0.10602451634699302,-0.10045785909388769,0.0912667323668876,0.0
0.10579947898381697,-0.10059277422341995,0.09123561873860582,0.0
0.10604946089380514,-0.10047636633829668,0.09120262756378979,0.0
0.10638125018849971,-0.10030792359208149,0.09114978803989744,0.0
0.1062122710004176,-0.10047958498949824,0.09113101257455498,0.0
0.10619510486067592,-0.1006625116661205,0.09128711715783085,0.0
0.10609747244089514,-0.10049299603617143,0.09122623100593459,0.0
0.10606314016141179,-0.10039214496518908,0.09114630116776241,0.0
0.10603095364939615,-0.1006300569331714,0.09119672670325359,0.0
0.10610176397583056,-0.10058472759541603,0.09129596844863515,0.0
0.10622246339588921,-0.10044391160534757,0.09125627175048252,0.0
0.10601915192832374,-0.10037015084864506,0.09111626042321448,0.0
0.10613609625531391,-0.10046831971029277,0.09123105898273694,0.0
0.10625277236137061,-0.10072152027148251,0.09126592770408722,0.0
0.1062203176284215,-0.1005227685597859,0.09120343222659018,0.0
0.1060623354986114,-0.10028753880113825,0.09120075001725554,0.0
0.10594351362508697,-0.10046080952415579,0.0911841203193808,0.0
0.10610095931303017,-0.10056273347887201,0.09124500647127705,0.0
0.10623265579136083,-0.10048092609416556,0.0912224759128661,0.0
0.10618169381400273,-0.10029880408034372,0.09120423688939057,0.0
0.10623238757042737,-0.10036854152304428,0.09124151959914202,0.0
0.10616560055799491,-0.10058848268848453,0.09125037088994632,0.0
0.10608513427795581,-0.10056595213007358,0.09112913502802074,0.0
0.10607681942901843,-0.10034520630183294,0.09120530977312442,0.0
0.10593117546214764,-0.10031167868514998,0.09126700058782107,0.0
0.10589523385706351,-0.10057721740927905,0.09128953114623202,0.0
0.10634343103688133,-0.10063998110770955,0.09119967713352169,0.0
0.10621388032601838,-0.10042835479120668,0.09122918143620269,0.0
0.10614414288331782,-0.10030846003394842,0.09129570022770168,0.0
0.10622058584935497,-0.1004659057218916,0.09135497705399716,0.0
0.10617096497666419,-0.10056756145567436,0.09129945532077018,0.0
0.10608379317328849,-0.10042620902373897,0.09131125704184258,0.0
0.1060379273936662,-0.10036478642997579,0.091345052879459,0.0
0.10609586311529436,-0.1004141390817331,0.09128765359969777,0.0
0.10617472006973268,-0.10049782401297377,0.09131742612331224,0.0
0.10611195637130218,-0.10042942767494054,0.09137375251933962,0.0
0.1061036415223648,-0.10029263499887406,0.09139145510094822,0.0
0.10612965895291078,-0.10052974230405598,0.0913724114146723,0.0
0.10609505845249396,-0.10055575973460196,0.09144322174110671,0.0
0.10595156025309088,-0.10050318843164305,0.09143410222936894,0.0
0.10605965328927676,-0.10032106641782121,0.09136892454253727,0.0
0.10616881920919648,-0.10019500257909328,0.09143249290376816,0.0
0.10612939073197732,-0.10049970155950802,0.09148506420672704,0.0
0.10615487172065637,-0.10043506031454327,0.09151671427687576,0.0
0.10605831218460944,-0.10027412775446506,0.09151912826527693,0.0
0.10610632373169944,-0.10027117732419696,0.0915341486375509,0.0
0.10615809037185793,-0.1003993869303926,0.09158913392891095,0.0
0.10609157158035894,-0.10045785909388769,0.09155533809129453,0.0
0.10607574654528458,-0.10028458837087015,0.09152985710261548,0.0
0.10612697674357614,-0.10024274590524981,0.09156553048676615,0.0
0.10614816619731977,-0.10034788851116758,0.09160978694078765,0.0
0.10570855208737279,-0.10041011576773115,0.09162105221999313,0.0
0.10574207970405575,-0.1002435505680502,0.09160790939425341,0.0
0.10613797380184815,-0.10007483960090155,0.09167201419735123,0.0
0.1064603753638715,-0.10015235545067255,0.09171627065137274,0.0
0.10636408404875804,-0.10031167868514998,0.09162588019679548,0.0
0.10620663836081486,-0.1001845419626882,0.09170822402336883,0.0
0.10615674926719061,-0.10001127123967066,0.0917683055124647,0.0
0.10616962387199687,-0.1000855684382401,0.09172109862817508,0.0
0.1061554081625233,-0.100333672801694,0.09172378083750972,0.0
0.10608754826635698,-0.10018185975335356,0.09173799654698331,0.0
0.10610793305730022,-0.10008288622890546,0.09171466132577195,0.0
0.10606984568474838,-0.10010219813611484,0.09189007781625722,0.0
0.10600037646298127,-0.10014806391573713,0.09191877745613783,0.0
0.10606126261487754,-0.09999759197206401,0.09188471339758794,0.0
0.10625143125670329,-0.09982083437691144,0.09182382724569169,0.0
0.10619483663974245,-0.10008503199637317,0.09179405472207722,0.0
0.10615326239505558,-0.10012258292705808,0.09193835758428068,0.0
0.10602102947485799,-0.1000198543095415,0.0919847598057699,0.0
0.10607145501034916,-0.09999866485579786,0.09190885328159967,0.0
0.10626484230337647,-0.09988574384280965,0.0919898560035057,0.0
0.10621924474468765,-0.10006572008916378,0.0919928064337738,0.0
0.1062085159073491,-0.10016496183454535,0.0919388940261476,0.0
0.10607145501034916,-0.09997586607645345,0.09191153549093431,0.0
0.10594351362508697,-0.09992624520376267,0.09192843340974252,0.0
0.10599688959084624,-0.10013331176439663,0.09206415320207514,0.0
0.10593198012494803,-0.10017756821841814,0.09195901059615738,0.0
0.10601620149805563,-0.1000877142057078,0.09191368125840202,0.0
0.10618223025586966,-0.09994180201790356,0.0919906606663061,0.0
0.10610793305730022,-0.10003541112368239,0.09207783246968179,0.0
0.10624338462869938,-0.10006089211236144,0.09205235148100274,0.0
0.1061752565115996,-0.0999503850877744,0.09197349452656442,0.0
0.1060585804055429,-0.10005284548435753,0.09195364617748811,0.0
0.10618410780240391,-0.1001955390209602,0.0920622756555409,0.0
0.10612053944117301,-0.10016523005547881,0.09214756991238235,0.0
0.10595907043922786,-0.09994019269230278,0.09218056108719838,0.0
0.10613529159251352,-0.09986133573786446,0.09210680033049587,0.0
0.10618947222107318,-0.09983424542358463,0.0921604445171886,0.0
0.10609720421996167,-0.1001394808458663,0.09216017629625514,0.0
0.10604892445193821,-0.09999464154179591,0.0922055056340105,0.0
0.10591937374107524,-0.09996030926231256,0.09208829308608688,0.0
0.10607172323128262,-0.10014082195053362,0.09215963985438821,0.0
0.10619269087227474,-0.1000139534490053,0.09233237413553882,0.0
0.10619108154667396,-0.10004265308888591,0.0922623684719048,0.0
0.10616533233706145,-0.09984524248185664,0.09219906833160738,0.0
0.10608862115009084,-0.09988118408694077,0.09225754049510246,0.0
0.10600922775378557,-0.10006947518223228,0.09243778496239005,0.0
0.10609720421996167,-0.10014994146227138,0.09237770347329419,0.0
0.10606582237074642,-0.09992946385496423,0.09231896308886564,0.0
0.10617418362786575,-0.09987125991240262,0.09234873561248011,0.0
0.1062506265939029,-0.10008825064757473,0.09237502126395955,0.0
0.10600064468391474,-0.10014672281106982,0.09226961043710832,0.0
0.1059891111837758,-0.0999983966348644,0.09229750541418855,0.0
0.10628656819898703,-0.09991980790135954,0.09234015254260927,0.0
0.10625625923350564,-0.09993134140149848,0.09238414077569732,0.0
0.10622595026802424,-0.10012553335732619,0.09240801243877558,0.0
0.10615487172065637,-0.09997962116952194,0.09236536531035486,0.0
0.10620932057014949,-0.09979588983009932,0.09243483453212195,0.0
0.10630266145499485,-0.10001583099553954,0.09230903891432748,0.0
0.10627449825698117,-0.1001542329972068,0.09240398912477363,0.0
0.10611571146437067,-0.10011990071772345,0.09242249636918262,0.0
0.10618544890707123,-0.0999836444835239,0.09244878202066206,0.0
0.10620878412828257,-0.10005499125182524,0.09240506200850748,0.0
0.10615648104625715,-0.10003728867021663,0.09248150497454463,0.0
0.10617954804653502,-0.10006142855422837,0.09245816975333329,0.0
0.10605670285900866,-0.10004184842608552,0.09242383747384994,0.0
0.106061530835811,-0.10021511914910305,0.09252281099829804,0.0
0.10623104646576005,-0.10009039641504244,0.09252763897510038,0.0
0.10589845250826507,-0.10015530588094065,0.09251610547496145,0.0
0.10614414288331782,-0.09999732375113055,0.09257672340592424,0.0
0.10627181604764653,-0.10000241994886636,0.09256465346391837,0.0
0.10599849891644703,-0.10024784210298562,0.09252737075416692,0.0
0.10602800321912804,-0.10029022101047289,0.09253970891710625,0.0
0.10635308699048603,-0.10002682805381155,0.09252844363790078,0.0
0.1062771804663158,-0.10003004670501311,0.09250323087015519,0.0
0.10624204352403206,-0.10021619203283691,0.09272344025652887,0.0
0.1061605043602591,-0.10020841362576646,0.09266845496516882,0.0
0.1059255428225449,-0.10003997087955127,0.09262312562741346,0.0
0.10607360077781687,-0.09988520740094273,0.09262473495301424,0.0
0.10628120378031776,-0.09998820423939278,0.09267140539543692,0.0
0.10620154216307905,-0.10022423866084082,0.09267676981410619,0.0
0.106235069779762,-0.10003702044928317,0.09266845496516882,0.0
0.10620368793054676,-0.09991390704082334,0.0927062741167872,0.0
0.10612348987144112,-0.10004721284475479,0.09268669398864435,0.0
0.10618357136053698,-0.10013545753186434,0.09271566184945843,0.0
0.10620610191894793,-0.10006223321702876,0.09271485718665803,0.0
0.10620824768641564,-0.09994180201790356,0.09260703237140563,0.0
0.10626967028017882,-0.10014940502040445,0.09269205840731362,0.0
0.10621790364002033,-0.10018105509055317,0.09273953351253669,0.0
0.10607976985928654,-0.10011078120598568,0.09271351608199072,0.0
0.10609103513849201,-0.09994421600630474,0.09272451314026273,0.0
0.10607547832435112,-0.10000885725126948,0.09274972590800831,0.0
0.10599635314897932,-0.10014618636920289,0.09277064714081848,0.0
0.10612268520864072,-0.10037176017424584,0.09271271141919032,0.0
0.10625545457070525,-0.09996701478564915,0.09270868810518837,0.0
0.10617096497666419,-0.0999777436229877,0.09274060639627055,0.0
0.10610176397583056,-0.10003272891434775,0.0928548685139261,0.0
0.10608701182449005,-0.10012124182239077,0.09279505524576367,0.0
0.10609371734782665,-0.10002334118167652,0.09272478136119619,0.0
0.10611437035970335,-0.1000796675777039,0.09273604664040166,0.0
0.10583086083303223,-0.10010997654318529,0.09281731758324116,0.0
0.10584427187970541,-0.10006545186823032,0.09279800567603178,0.0
0.10611785723183838,-0.10004131198421859,0.09273309621013356,0.0
0.1062838859896524,-0.10001931786767457,0.09274570259400636,0.0
0.10632063225753692,-0.10010434390358255,0.09279478702483021,0.0
0.10617954804653502,-0.10016630293921266,0.09277279290828619,0.0
0.10613851024371508,-0.10020975473043378,0.09269983681438407,0.0
0.10612590385984229,-0.09996996521591725,0.09278271708282435,0.0
0.10612590385984229,-0.10002360940260999,0.09287283931646817,0.0
0.10610230041769748,-0.10022182467243965,0.09282804642057971,0.0
0.10613421870877966,-0.10014886857853753,0.09281892690884194,0.0
0.10611463858063681,-0.10003567934461585,0.09280605230403569,0.0
0.10608191562675424,-0.10004560351915401,0.09288195882820593,0.0
0.10613529159251352,-0.10019151570695825,0.09291521822395543,0.0
0.1061554081625233,-0.1001571834274749,0.0928910783399437,0.0
0.10618035270933542,-0.0999208807850934,0.09284762654872258,0.0
0.10611356569690296,-0.10000858903033602,0.09291360889835465,0.0
0.10613180472037849,-0.10020009877682909,0.09291736399142314,0.0
0.1061819620349362,-0.10015047790413831,0.09291360889835465,0.0
0.10615943147652525,-0.10008288622890546,0.0928497723161903,0.0
0.10613529159251352,-0.10011721850838881,0.09295571958490845,0.0
0.10618705823267201,-0.1002797603940678,0.09307105458629783,0.0
0.10608379317328849,-0.1000855684382401,0.09299863493426264,0.0
0.10584132144943731,-0.0998034000162363,0.09293077503809632,0.0
0.10605750752180905,-0.10000510215820099,0.09286854778153275,0.0
0.10625009015203597,-0.10018132331148663,0.09299219763185951,0.0
0.10594244074135312,-0.10017756821841814,0.09288732324687521,0.0
0.10585365961237664,-0.1000367522283497,0.09289563809581258,0.0
0.10616667344172877,-0.100016099216473,0.09296752130598085,0.0
0.10620020105841173,-0.10008959175224205,0.09297851836425286,0.0
0.10614950730198709,-0.10022906663764317,0.0929752997130513,0.0
0.1061967141862767,-0.10011051298505222,0.09294177209636834,0.0
0.1062085159073491,-0.0999739885299192,0.09289456521207873,0.0
0.10614816619731977,-0.10014189483426747,0.09290824447968538,0.0
0.10614146067398318,-0.10025079253325372,0.09291414534022158,0.0
0.10610820127823369,-0.1001091718803849,0.09284467611845448,0.0
0.1059440500669539,-0.09997586607645345,0.092899929630748,0.0
0.10593761276455077,-0.10017649533468428,0.09297100817811588,0.0
0.10612241698770726,-0.10024515989365099,0.09294874584063839,0.0
0.10626886561737843,-0.10017005803228116,0.09288598214220789,0.0
0.10612778140637653,-0.09991605280829105,0.09288866435154253,0.0
0.10610122753396363,-0.10003138780968043,0.09286720667686543,0.0
0.10607172323128262,-0.10026527646366076,0.09298978364345833,0.0
0.10601807904458989,-0.10010139347331445,0.09293694411956599,0.0
0.10598106455577189,-0.09982351658624608,0.09286023293259538,0.0
0.10607762409181883,-0.09990693329655329,0.0928191951297754,0.0
0.10609613133622782,-0.1000611603332949,0.09295276915464035,0.0
0.10616372301146067,-0.1000847637754397,0.09303162610907867,0.0
0.10609023047569162,-0.09995092152964133,0.09294016277076755,0.0
0.10607011390568184,-0.09987045524960222,0.09298254167825482,0.0
0.1059979624745801,-0.10019232036975864,0.0929715446199828,0.0
0.10606474948701257,-0.10015530588094065,0.09291387711928811,0.0
0.10593788098548423,-0.09992463587816189,0.09291414534022158,0.0
0.1058812863685234,-0.09997157454151803,0.09300319469013152,0.0
0.10592125128760949,-0.10012848378759429,0.09300534045759923,0.0
0.10602800321912804,-0.10014886857853753,0.09305603421402386,0.0
0.10628495887338625,-0.09990049599415016,0.09293989454983409,0.0
0.10623265579136083,-0.09977577326008955,0.09300560867853269,0.0
0.10620046927934519,-0.09994877576217362,0.09307668722590057,0.0
0.10614414288331782,-0.10015101434600523,0.09304262316735068,0.0
0.10604865623100475,-0.10013733507839859,0.09301714217867163,0.0
0.10606904102194799,-0.09989459513361396,0.09299192941092604,0.0
0.10619859173281095,-0.10005096793782328,0.09301794684147202,0.0
0.10614789797638631,-0.1001445770436021,0.09304423249295146,0.0
0.10606904102194799,-0.10019822123029484,0.09289054189807677,0.0
0.10609827710369553,-0.09990478752908558,0.09311316527285163,0.0
0.10612992717384424,-0.09982834456304843,0.0931480339942019,0.0
0.10596336197416328,-0.10007215739156691,0.09308714784230565,0.0
0.10612939073197732,-0.10013733507839859,0.0931037775401804,0.0
0.10622273161682268,-0.09998176693698965,0.09309438980750917,0.0
0.10616265012772681,-0.10000510215820099,0.09310189999364615,0.0
0.1061272449645096,-0.10019419791629289,0.09309224404004146,0.0
0.10616077258119257,-0.1002974629756764,0.09307829655150135,0.0
0.10605375242874056,-0.10005767346115987,0.0930587164233585,0.0
0.10577158400673675,-0.09994931220404055,0.09299380695746029,0.0
0.10597784590457032,-0.1000611603332949,0.09315876283154045,0.0
0.10625706389630603,-0.10007644892650233,0.0931724420991471,0.0
0.10619161798854089,-0.10005660057742602,0.09302974856254442,0.0
0.10581825444915943,-0.09995092152964133,0.09305603421402386,0.0
0.10621039345388335,-0.10007483960090155,0.09311236061005124,0.0
0.10627664402444888,-0.10023711326564708,0.09314481534300034,0.0
0.10607681942901843,-0.10009227396157669,0.0930262616904094,0.0
0.10623936131469743,-0.09988064764507384,0.09295169627090649,0.0
0.10621709897721994,-0.10005257726342406,0.09310109533084576,0.0
0.10601164174218675,-0.10020090343962948,0.09311906613338783,0.0
0.1060644812660791,-0.10006357432169607,0.09316010393620777,0.0
0.10609076691755855,-0.0998337089817177,0.09313676871499643,0.0
0.10622192695402229,-0.10000993013500334,0.0931517890872704,0.0
0.10619617774440977,-0.10018615128828898,0.0931037775401804,0.0
0.1060593850683433,-0.10010595322918334,0.09305013335348766,0.0
0.10600225400951552,-0.10013787152026551,0.09304664648135264,0.0
0.10602934432379536,-0.09986589549373334,0.09319282689009034,0.0
0.1060556299752748,-0.09992356299442803,0.09318182983181833,0.0
0.10605133844033938,-0.10011131764785261,0.0930941215865757,0.0
0.10609210802222586,-0.09996406435538105,0.0930852702957714,0.0
0.10609613133622782,-0.09995360373897597,0.09311906613338783,0.0
0.10609023047569162,-0.10010514856638295,0.09317566075034867,0.0
0.10597891878830418,-0.10006679297289764,0.09313542761032911,0.0
0.10596899461376602,-0.0998691141449349,0.09304423249295146,0.0
0.10587592194985412,-0.09998552203005814,0.09298951542252487,0.0
0.10612000299930609,-0.10008825064757473,0.09321991720437017,0.0
0.10615084840665441,-0.10015020968320484,0.09322715916957369,0.0
0.10600735020725133,-0.10007215739156691,0.09321294346010012,0.0
0.1059233970550772,-0.09989298580801317,0.09320704259956392,0.0
0.10589389275239619,-0.10004158020515205,0.09323466935571068,0.0
0.10602880788192844,-0.10005418658902485,0.09331111232174782,0.0
0.1062173671981534,-0.09993751048296814,0.09322447696023906,0.0
0.10615353061598905,-0.09992892741309731,0.09318773069235453,0.0
0.10606904102194799,-0.10005713701929295,0.0932352057975776,0.0
0.1061124928131691,-0.10021887424217155,0.09322179475090442,0.0
0.10604731512633743,-0.10005579591462563,0.09322823205330755,0.0
0.10605965328927676,-0.09983183143518345,0.09326685586772632,0.0
0.10619430019787553,-0.10002763271661194,0.09322447696023906,0.0
0.10613260938317888,-0.10033340458076054,0.09313247718006101,0.0
0.10607976985928654,-0.10007403493810116,0.09317217387821364,0.0
0.1060623354986114,-0.09989003537774507,0.09322447696023906,0.0
0.10605375242874056,-0.1000338017980816,0.09316412725020973,0.0
0.10597489547430222,-0.1002346992772459,0.09323037782077526,0.0
0.1060829885104881,-0.10012446047359233,0.09324888506518425,0.0
0.10616962387199687,-0.09995494484364328,0.0931635908083428,0.0
0.10606072617301061,-0.10000161528606596,0.09320650615769699,0.0
0.10607011390568184,-0.1002982676384768,0.09322259941370481,0.0
0.10601539683525524,-0.1002296030795101,0.09312094367992207,0.0
0.10603712273086581,-0.09997023343685071,0.09330413857747777,0.0
0.10612053944117301,-0.09999008178592703,0.09328080335626643,0.0
0.10613716913904776,-0.10020707252109914,0.09324673929771654,0.0
0.10608191562675424,-0.10028083327780166,0.09326471010025861,0.0
0.10601700616085602,-0.10012660624106004,0.09322125830903749,0.0
0.10602558923072687,-0.10007832647303658,0.09323091426264218,0.0
0.10602210235859184,-0.10028217438246897,0.09327490249573023,0.0
0.10595316957869166,-0.10036854152304428,0.09329072753080458,0.0
0.1058960385198639,-0.10022504332364121,0.09318343915741911,0.0
0.1058606333566467,-0.10007618070556887,0.09319443621569112,0.0
0.10584775875184044,-0.1001209736014573,0.09325505414665392,0.0
0.10614736153451938,-0.10039402251172333,0.09321240701823319,0.0
0.10622782781455849,-0.10033099059235936,0.09310431398204733,0.0
0.10616560055799491,-0.09999893307673133,0.09321428456476744,0.0
0.10604892445193821,-0.10020653607923222,0.09330360213561084,0.0
0.1060674316963472,-0.10041816239573506,0.09324593463491615,0.0
0.10623319223322776,-0.10032964948769205,0.09318558492488682,0.0
0.10614923908105363,-0.10011453629905417,0.09318692602955414,0.0
0.10607869697555268,-0.10014216305520093,0.09318290271555218,0.0
0.1061065919526329,-0.10025669339378993,0.09325746813505509,0.0
0.10603229475406346,-0.10031972531315389,0.09325907746065587,0.0
0.1060475833472709,-0.10006625653103071,0.09319550909942498,0.0
0.1059373445436173,-0.10009602905464518,0.09316278614554241,0.0
0.10606367660327871,-0.10034145120876445,0.09333230177549146,0.0
0.10613636447624737,-0.10032884482489166,0.09329636017040732,0.0
0.10610095931303017,-0.10013143421786239,0.09325532236758738,0.0
0.10614011956931586,-0.1000944197290444,0.0932499579489181,0.0
0.10605375242874056,-0.10029290321980752,0.09336797515964212,0.0
0.10602076125392453,-0.10036371354624193,0.09331003943801397,0.0
0.10598052811390496,-0.10011373163625378,0.09322474518117252,0.0
0.10594539117162122,-0.10010300279891524,0.09333256999642492,0.0
0.1060475833472709,-0.10038865809305406,0.09336314718283978,0.0
0.10600118112578166,-0.10032213930155506,0.09341062228806285,0.0
0.1060261256725938,-0.10019688012562752,0.0933223776009533,0.0
0.10587377618238641,-0.10005418658902485,0.09338004510164799,0.0
0.10611222459223564,-0.10025132897512065,0.09339640657858927,0.0
0.10621575787255262,-0.10033179525515976,0.09340552609032704,0.0
0.10608057452208693,-0.1001837372998878,0.09336314718283978,0.0
0.10586143801944708,-0.10015664698560797,0.09335510055483587,0.0
0.10589201520586194,-0.10022316577710697,0.09340096633445816,0.0
0.10599742603271317,-0.10043318276800903,0.09340338032285933,0.0
0.10593546699708306,-0.10036505465090925,0.09341571848579866,0.0
0.1061103470457014,-0.10011399985718725,0.09341410916019788,0.0
0.10614253355771704,-0.10013492108999741,0.0934006981135247,0.0
0.1060652859288795,-0.10013518931093088,0.09349135678903542,0.0
0.10603712273086581,-0.10023282173071166,0.09349108856810195,0.0
0.10609157158035894,-0.10011668206652188,0.09338755528778497,0.0
0.1060593850683433,-0.10010702611291719,0.09348599237036614,0.0
0.10604409647513587,-0.10023443105631244,0.0936214439417653,0.0
0.10598213743950574,-0.10032213930155506,0.09348599237036614,0.0
0.1059292979156134,-0.10022262933524004,0.093516569556781,0.0
0.1060408778239343,-0.10002682805381155,0.09366140886085139,0.0
0.10598669719537462,-0.10019419791629289,0.09366543217485335,0.0
0.10590542625253513,-0.10030148628967836,0.09358764810414888,0.0
0.1059743590324353,-0.10014591814826942,0.09356028956893558,0.0
0.10604838801007128,-0.10004774928662172,0.0935557298130667,0.0
0.10583515236796764,-0.100256156951923,0.09354929251066357,0.0
0.10570077368030234,-0.10023308995164512,0.09361983461616452,0.0
0.10582308242596178,-0.1001365304155982,0.09351791066144832,0.0
0.10610873772010061,-0.10011721850838881,0.09363726897683966,0.0
0.10625196769857022,-0.10017381312534965,0.09365041180257938,0.0
0.10611571146437067,-0.10019714834656099,0.09366999193072223,0.0
0.10603873205646659,-0.10015637876467451,0.0935683361969395,0.0
0.10597087216030027,-0.1001327753225297,0.0934693626724914,0.0
0.10600761842818479,-0.10020680430016568,0.0937322191872858,0.0
0.10601056885845289,-0.10048414474536713,0.09370673819860675,0.0
0.10594297718322004,-0.1004865587337683,0.09361795706963028,0.0
0.10590033005479932,-0.10012204648519116,0.09361902995336413,0.0
0.10601083707938636,-0.1001394808458663,0.09370083733807055,0.0
0.10600869131191865,-0.10029880408034372,0.09370056911713709,0.0
0.10594619583442161,-0.10024274590524981,0.09365711732591597,0.0
0.10583488414703418,-0.1001239240317254,0.09362358970923301,0.0
0.10600118112578166,-0.10021190049790149,0.09359033031348352,0.0
0.10608137918488732,-0.10036210422064115,0.09365872665151675,0.0
0.1060127146259206,-0.10033689145289557,0.09356994552254028,0.0
0.10605375242874056,-0.10023308995164512,0.09373356029195312,0.0
0.1060703821266153,-0.10022799375390931,0.09374884888516055,0.0
0.106061530835811,-0.10045839553575461,0.09374750778049323,0.0
0.10605107021940592,-0.10038141612785054,0.09376574680396876,0.0
0.10596631240443138,-0.10031489733635154,0.09365899487245022,0.0
0.10594646405535507,-0.10027734640566663,0.09372792765235038,0.0
0.10591615508987368,-0.10038946275585445,0.09378425404837776,0.0
0.10588933299652731,-0.1003993869303926,0.09375743195503139,0.0
0.10601405573058792,-0.10027627352193277,0.09366435929111949,0.0
0.1061006910920967,-0.1001217782642577,0.09374670311769284,0.0
0.10592527460161144,-0.10034225587156484,0.09375340864102943,0.0
0.10574824878552541,-0.10042889123307361,0.09370593353580636,0.0
0.10610310508049788,-0.1002014398814964,0.09378747269957932,0.0
0.1061044461851652,-0.10018588306735551,0.0936783067796596,0.0
0.1060593850683433,-0.1002827108243359,0.09381134436265759,0.0
0.10600520443978362,-0.10038946275585445,0.09384138510720552,0.0
0.10599984002111434,-0.10027466419633199,0.09374884888516055,0.0
0.10606018973114369,-0.10025749805659032,0.09371237083820949,0.0
0.10602156591672492,-0.10058714158381721,0.0938105396998572,0.0
0.10597382259056837,-0.10032938126675858,0.09384245799093938,0.0
0.10596067976482865,-0.10012311936892501,0.09379417822291591,0.0
0.10593949031108502,-0.10005740524022641,0.09374080225715664,0.0
0.10596523952069753,-0.10016281606707764,0.09377486631570653,0.0
0.10584963629837468,-0.10035325292983685,0.09386418388654993,0.0
0.10574181148312228,-0.1003248215108897,0.09378291294371044,0.0
0.10605536175434134,-0.1001453817064025,0.09368957205886508,0.0
0.1060977406618286,-0.10016227962521071,0.09371076151260871,0.0
0.10604946089380514,-0.10033689145289557,0.09381965921159496,0.0
0.10598884296284233,-0.10032964948769205,0.09388403223562625,0.0
0.10590676735720245,-0.1001874923929563,0.09376735612956955,0.0
0.1059410996366858,-0.10021377804443574,0.09371532126847759,0.0
0.10584293077503809,-0.10045061712868417,0.09386954830521921,0.0
0.10593841742735116,-0.10040287380252763,0.0938910059798963,0.0
0.10605831218460944,-0.10014645459013635,0.09382663295586502,0.0
0.10598294210230613,-0.10012848378759429,0.0938105396998572,0.0
0.10599474382337853,-0.10026608112646115,0.09385291860734446,0.0
0.10597382259056837,-0.10040743355839651,0.09383467958386893,0.0
0.10592607926441183,-0.10029102567327328,0.09379230067638167,0.0
0.1059292979156134,-0.10019580724189367,0.09380437061838753,0.0
0.1059381492064177,-0.10029424432447484,0.09390441702656949,0.0
0.10576300093686591,-0.1004385471866783,0.09385908768881412,0.0
0.10564096041213994,-0.10041226153519886,0.09388269113095893,0.0
0.10562808580733368,-0.10028807524300518,0.09387437628202155,0.0
0.10616694166266223,-0.10044230227974679,0.09390441702656949,0.0
0.10611195637130218,-0.10051364904804813,0.09385640547947949,0.0
0.10595692467176016,-0.10039026741865484,0.09383467958386893,0.0
0.10598803830004194,-0.10041092043053154,0.09367562457032497,0.0
0.10602639389352726,-0.10039804582572529,0.09385989235161452,0.0
0.10600037646298127,-0.10034440163903255,0.09402672577222894,0.0
0.10592393349694412,-0.10042111282600316,0.09395028280619179,0.0
0.10587914060105569,-0.10034198765063138,0.09386311100281608,0.0
0.10591535042707328,-0.1003846347790521,0.09383682535133664,0.0
0.105917496194541,-0.10044686203561567,0.09390227125910178,0.0
0.10582951972836491,-0.10052679187378788,0.09379739687411748,0.0
0.10582200954222792,-0.10042433147720473,0.09381617233945994,0.0
0.10599635314897932,-0.10012821556666082,0.09387062118895306,0.0
0.10595075559029049,-0.10032508973182316,0.09383226559546776,0.0
0.10587028931025139,-0.10048548585003444,0.09384406731654016,0.0
0.10585848758917898,-0.10034869317396797,0.09384353087467323,0.0
0.1058901376593277,-0.1002620578124592,0.09377701208317424,0.0
0.1059558517880263,-0.10045651798922037,0.09385318682827792,0.0
0.10579733321634927,-0.10055039531593268,0.09386901186335228,0.0
0.10560126371398731,-0.1003993869303926,0.09382207319999614,0.0
0.10576568314620055,-0.10019500257909328,0.09374831244329362,0.0
0.10593653988081692,-0.10037766103478205,0.09379605576945016,0.0
0.10591722797360753,-0.1005517364206,0.09392855691058122,0.0
0.1057793624138072,-0.10047046547776048,0.09390039371256753,0.0
0.10587511728705373,-0.10026554468459423,0.09384406731654016,0.0
0.10598642897444116,-0.1004178941748016,0.09389020131709591,0.0
0.10586009691477977,-0.1006123543515628,0.09388295935189239,0.0
0.10606957746381492,-0.10057989961861369,0.09381590411852647,0.0
0.10604329181233547,-0.10025347474258836,0.09383655713040318,0.0
0.10602719855632765,-0.10031167868514998,0.09387679027042273,0.0
0.10594324540415351,-0.10052706009472134,0.09382716939773195,0.0
0.10582898328649798,-0.1007282257948191,0.09375099465262826,0.0
0.10586841176371714,-0.10049728757110685,0.09376494214116837,0.0
0.1059078402409363,-0.10015396477627334,0.09380517528118792,0.0
0.10599823069551356,-0.10040367846532802,0.09389315174736401,0.0
0.10593975853201848,-0.10049406891990528,0.09381590411852647,0.0
0.10593358945054882,-0.10034601096463333,0.09372363611741497,0.0
0.10593466233428267,-0.1003543258135707,0.09377996251344234,0.0
0.10598052811390496,-0.10049916511764109,0.09376708790863608,0.0
0.10596067976482865,-0.10053430205992486,0.09380973503705681,0.0
0.10589469741519658,-0.10031167868514998,0.09384058044440513,0.0
0.10589577029893044,-0.10035647158103841,0.09374509379209206,0.0
0.10599528026524546,-0.10043452387267635,0.09389851616603329,0.0
0.10593010257841379,-0.10055039531593268,0.09385318682827792,0.0
0.10591561864800675,-0.10046268707069003,0.09376896545517033,0.0
0.10592071484574256,-0.10024381878898367,0.09382475540933077,0.0
0.1058177180072925,-0.10042513614000512,0.09387383984015463,0.0
0.10562540359799905,-0.10062764294477022,0.0938016884090529,0.0
0.10583005617023183,-0.10058606870008335,0.09381134436265759,0.0
0.1060534842078071,-0.10038624410465288,0.09384138510720552,0.0
0.1059078402409363,-0.10032964948769205,0.09385399149107831,0.0
0.10576836535553519,-0.10064856417758039,0.09394920992245794,0.0
0.10612644030170922,-0.1005517364206,0.09392453359657926,0.0
0.1060556299752748,-0.10035620336010495,0.09388644622402742,0.0
0.10592071484574256,-0.10052491432725363,0.09384943173520943,0.0
0.10565759011001469,-0.10059036023501877,0.09391648696857535,0.0
0.10579894254195005,-0.10060055263049039,0.09386793897961843,0.0
0.10610766483636676,-0.10035861734850612,0.09382851050239926,0.0
0.10609291268502626,-0.10019607546282713,0.09384943173520943,0.0
0.10601807904458989,-0.10049675112923992,0.09405193853997453,0.0
0.10594217252041965,-0.10056836611847475,0.09399641680674754,0.0
0.10588879655466038,-0.10039268140705601,0.09396369385286497,0.0
0.1058665342171829,-0.10037927036038283,0.09389744328229943,0.0
0.10585902403104591,-0.10053457028085833,0.09395350145739335,0.0
0.10587645839172105,-0.10049138671057065,0.09396476673659883,0.0
0.10578311750687569,-0.1003787339185159,0.09383199737453429,0.0
0.1058783359382553,-0.10039375429078987,0.09400178122541682,0.0
0.10594726871815546,-0.10049621468737299,0.09402350712102737,0.0
0.10590328048506742,-0.10058580047914989,0.09398434686474168,0.0
0.1059019393804001,-0.10047690278016361,0.0939347259920509,0.0
0.10594860982282278,-0.10034601096463333,0.09391916917790999,0.0
0.10596523952069753,-0.10047797566389746,0.09392372893377887,0.0
0.1059373445436173,-0.10064802773571346,0.09389663861949904,0.0
0.10589523385706351,-0.10058070428141408,0.09387062118895306,0.0
0.10565490790068005,-0.10025293830072143,0.09381670878132686,0.0
0.10559428996971726,-0.10044793491934953,0.09387705849135619,0.0
0.10574100682032189,-0.10066894896852363,0.09388644622402742,0.0
0.10600869131191865,-0.10048307186163327,0.09380624816492178,0.0
0.10606609059167989,-0.10043532853547674,0.0937410704780901,0.0
0.1058745808451868,-0.10044927602401685,0.09383387492106854,0.0
0.10587565372892066,-0.10042540436093858,0.0937507264316948,0.0
0.105995012044312,-0.10049272781523796,0.09383253381640122,0.0
0.10589737962453122,-0.10034762029023411,0.09382368252559692,0.0
0.10586921642651753,-0.1003277719411578,0.09387679027042273,0.0
0.10574717590179156,-0.1005879462466176,0.09391675518950882,0.0
0.10583890746103614,-0.10061369545623011,0.09387223051455384,0.0
0.10601512861432177,-0.1003403783250306,0.09383333847920161,0.0
0.10569728680816731,-0.10037390594171355,0.0938408486653386,0.0
0.1059255428225449,-0.10052303678071936,0.09390709923590412,0.0
0.10605723930087559,-0.1006153047818309,0.09386284278188262,0.0
0.10592151950854295,-0.10049621468737299,0.09376816079236994,0.0
0.10590354870600088,-0.10049728757110685,0.09375770017596485,0.0
0.10598079633483842,-0.10056541568820665,0.09384218977000591,0.0
0.10589228342679541,-0.10057641274647866,0.09380115196718597,0.0
0.10581905911195982,-0.10044176583787987,0.0938606970144149,0.0
0.10583300660049993,-0.10039241318612255,0.0938223414209296,0.0
0.10594324540415351,-0.10049138671057065,0.0938488952933425,0.0
0.10600600910258401,-0.10070837744574279,0.09382207319999614,0.0
0.10593358945054882,-0.10063354380530642,0.09386981652615267,0.0
0.10595156025309088,-0.10021941068403847,0.09387169407268692,0.0
0.10592983435748032,-0.10039214496518908,0.09385157750267714,0.0
0.10585017274024161,-0.10062201030516749,0.09391326831737379,0.0
0.10584346721690502,-0.10040072803505992,0.09392909335244815,0.0
0.10577185222767022,-0.10029022101047289,0.09382931516519966,0.0
0.1056685871682867,-0.10042513614000512,0.09379230067638167,0.0
0.10611705256903799,-0.10059626109555497,0.09389797972416636,0.0
0.10624257996589899,-0.10081325183072709,0.09388564156122703,0.0
0.10601727438178948,-0.10025481584725568,0.09386284278188262,0.0
0.10600815487005172,-0.10014028550866669,0.09387974070069083,0.0
0.10602397990512609,-0.10042915945400707,0.0939242653756458,0.0
0.10600466799791669,-0.10046188240788964,0.09384809063054211,0.0
0.1059343941133492,-0.10040099625599339,0.09369064494259893,0.0
0.1059647030788306,-0.10046402817535735,0.09387410806108809,0.0
0.10601620149805563,-0.10047851210576439,0.09396691250406654,0.0
0.10597784590457032,-0.10053617960645911,0.09381778166506072,0.0
0.10589389275239619,-0.10044578915188182,0.09372068568714687,0.0
0.10589818428733161,-0.10027868751033395,0.09384192154907245,0.0
0.10596416663696367,-0.10040287380252763,0.09382851050239926,0.0
0.10595075559029049,-0.10059947974675654,0.09386713431681803,0.0
0.10584132144943731,-0.1005576372811362,0.09385989235161452,0.0
0.10581798622822597,-0.10041896705853545,0.0938606970144149,0.0
0.10607976985928654,-0.1003942907326568,0.09391300009644032,0.0
0.1060644812660791,-0.10062844760757061,0.09389315174736401,0.0
0.10595772933456055,-0.10048012143136517,0.09389637039856558,0.0
0.10596202086949597,-0.10026018026592495,0.09394116329445402,0.0
0.10584641764717312,-0.10030094984781143,0.09392346071284541,0.0
0.10571820804097748,-0.10060752637476045,0.0938370935722701,0.0
0.10589791606639815,-0.10061020858409508,0.09393874930605285,0.0
0.10596148442762904,-0.10027734640566663,0.0939146094220411,0.0
0.10590435336880127,-0.10033984188316367,0.09391514586390803,0.0
0.10583488414703418,-0.10049138671057065,0.09384996817707636,0.0
0.10618759467453893,-0.10060189373515771,0.09376386925743452,0.0
0.10605402064967402,-0.10051418548991506,0.09379176423451474,0.0
0.10588530968252535,-0.10057131654874285,0.0938918106426967,0.0
0.10606957746381492,-0.10051043039684657,0.0939398221897867,0.0
0.10607252789408302,-0.1006300569331714,0.09388483689842664,0.0
0.10585473249611049,-0.10035647158103841,0.09382582829306463,0.0
0.1057667560299344,-0.10032374862715585,0.09385694192134642,0.0
0.10603926849833352,-0.10050292021070958,0.09392533825937965,0.0
0.10594753693908893,-0.10068128713146296,0.09388912843336206,0.0
0.10588396857785803,-0.10055790550206967,0.09381804988599418,0.0
0.10597623657896954,-0.10044042473321255,0.0938105396998572,0.0
0.1059145457642729,-0.10060055263049039,0.09379820153691787,0.0
0.1059233970550772,-0.10069308885253536,0.09385399149107831,0.0
0.10596497129976407,-0.10061208613062933,0.09378532693211161,0.0
0.10592607926441183,-0.10048334008256674,0.09372846409421731,0.0
0.10595343779962513,-0.10056273347887201,0.0937957875485167,0.0
0.105976504799903,-0.10058606870008335,0.09381778166506072,0.0
0.10595182847402435,-0.10055575973460196,0.09382448718839731,0.0
0.10594029497388541,-0.10048629051283484,0.09375635907129753,0.0
0.10594270896228658,-0.10060216195609117,0.09371344372194335,0.0
0.10590140293853317,-0.10075290212069776,0.09378639981584547,0.0
0.10566644140081899,-0.10046778326842584,0.09378371760651083,0.0
0.10576031872753128,-0.1004629552916235,0.09370110555900402,0.0
0.10593198012494803,-0.1005198181295178,0.09383065626986697,0.0
0.10578016707660759,-0.1006692171894571,0.09380007908345211,0.0
0.10591186355493826,-0.10066117056145318,0.09367696567499229,0.0
0.10610578728983251,-0.10054851776939844,0.0936702601516557,0.0
0.10597382259056837,-0.10054368979259609,0.0938437990956067,0.0
0.10590247582226703,-0.10060350306075849,0.09382985160706658,0.0
0.10591588686894021,-0.10067967780586218,0.09378666803677893,0.0
0.10589416097332965,-0.10050345665257651,0.09373731538502161,0.0
0.10607091856848223,-0.10046563750095813,0.09373141452448541,0.0
0.10600279045138244,-0.10074110039962536,0.09371263905914295,0.0
0.10601244640498714,-0.10078026065591106,0.09374267980369089,0.0
0.1058745808451868,-0.10076899537670558,0.09358872098788273,0.0
0.10597033571843334,-0.1004836083035002,0.09362975879070268,0.0
0.10603551340526503,-0.10058392293261564,0.09372685476861653,0.0
0.10597301792776798,-0.10069147952693458,0.09370727464047368,0.0
0.1059381492064177,-0.10063166625877218,0.09368393941926234,0.0
0.10597033571843334,-0.1004237950353378,0.09365658088404905,0.0
0.10594539117162122,-0.1005576372811362,0.09358979387161659,0.0
0.10589147876399502,-0.10090444694810474,0.09360320491828977,0.0
0.10585553715891088,-0.10089854608756854,0.09360025448802167,0.0
0.10587565372892066,-0.10036934618584467,0.09355707091773402,0.0
0.10585848758917898,-0.10042540436093858,0.09363673253497273,0.0
0.10586546133344904,-0.10070220836427313,0.09368045254712731,0.0
0.10601995659112413,-0.10064105399144341,0.09362949056976921,0.0
0.105898988950132,-0.10049004560590333,0.09355760735960095,0.0
0.10563184090040217,-0.10059009201408531,0.09359113497628391,0.0
0.10571633049444323,-0.10062657006103637,0.09357799215054419,0.0
0.10614038779024933,-0.10059170133968609,0.09354070944079274,0.0
0.10610846949916715,-0.10049862867577417,0.0935106686962448,0.0
0.10598723363724155,-0.10049004560590333,0.09347097199809218,0.0
0.10587055753118485,-0.10064963706131425,0.09355385226653246,0.0
0.10587323974051949,-0.10065795191025162,0.09355814380146787,0.0
0.10599715781177971,-0.10047931676856478,0.0935852341157477,0.0
0.10589335631052926,-0.10045169001241802,0.09361527486029564,0.0
0.10592312883414373,-0.10064346797984458,0.09361017866255983,0.0
0.10604811978913782,-0.10070810922480933,0.09363565965123888,0.0
0.10600869131191865,-0.10053752071112643,0.09357182306907452,0.0
0.10587806771732183,-0.10063086159597179,0.09350262206824089,0.0
0.1057823128440753,-0.10063059337503832,0.09356216711546983,0.0
0.10584346721690502,-0.10064507730544536,0.09359703583682011,0.0
0.105995012044312,-0.10058258182794833,0.09354902428973011,0.0
0.10598079633483842,-0.10044632559374875,0.09359730405775357,0.0
0.10599179339311043,-0.10047502523362936,0.09363351388377117,0.0
0.10591615508987368,-0.10066814430572324,0.09358550233668117,0.0
0.10589174698492848,-0.10065178282878195,0.09355680269680056,0.0
0.10578848192554496,-0.10038946275585445,0.09360722823229173,0.0
0.10583005617023183,-0.10038061146505015,0.09360749645322519,0.0
0.10607199145221609,-0.10046644216375852,0.09343824904420961,0.0
0.10611168815036871,-0.10042647724467244,0.09356645865040525,0.0
0.10603739095179927,-0.10027278664979775,0.09358335656921346,0.0
0.10594163607855273,-0.1003218710806216,0.09356699509227218,0.0
0.10584614942623966,-0.10051123505964696,0.0935793332552115,0.0
0.10569567748256653,-0.1004895091640364,0.09347794574236223,0.0
0.1060261256725938,-0.10029880408034372,0.09342752020687106,0.0
0.10602988076566229,-0.10037471060451394,0.09350342673104128,0.0
0.10595746111362708,-0.1004718065824278,0.09355465692933285,0.0
0.10588182281039032,-0.10056997544407553,0.09350128096357357,0.0
0.1057136482851086,-0.10038946275585445,0.09347848218422916,0.0
0.1059019393804001,-0.1002317488469778,0.09352300685918413,0.0
0.10609505845249396,-0.1004570544310873,0.09351576489398061,0.0
0.10605080199847246,-0.1004718065824278,0.09347016733529179,0.0
0.10604275537046855,-0.10033259991796015,0.09346507113755598,0.0
0.10596067976482865,-0.10029719475474294,0.09357852859241111,0.0
0.10591481398520636,-0.10041548018640042,0.09354821962692972,0.0
0.10598884296284233,-0.10046456461722428,0.09351335090557944,0.0
0.10590837668280323,-0.10049299603617143,0.09342403333473603,0.0
0.10597006749749988,-0.10034011010409713,0.09347767752142877,0.0
0.1059824056604392,-0.10041172509333193,0.09353829545239156,0.0
0.105947000497222,-0.1005399346995276,0.09359328074375162,0.0
0.105898988950132,-0.10034171942969791,0.09356994552254028,0.0
0.10588852833372692,-0.10028619769647093,0.09354312342919391,0.0
0.10594029497388541,-0.10035647158103841,0.09357557816214301,0.0
0.1059381492064177,-0.1005190134667174,0.09355331582466553,0.0
0.1058775312754549,-0.1004141390817331,0.09347499531209413,0.0
0.10580323407688547,-0.10030148628967836,0.09340177099725855,0.0
0.10573966571565457,-0.10035459403450417,0.0934057943112605,0.0
0.10572491356431407,-0.1004895091640364,0.09353427213838961,0.0
0.10592071484574256,-0.10049889689670763,0.09345005076528201,0.0
0.10584078500757038,-0.10027305487073121,0.09343556683487497,0.0
0.10600225400951552,-0.10028002861500127,0.09333283821735838,0.0
0.10618303491867005,-0.10044203405881333,0.09343288462554034,0.0
0.10601861548645682,-0.10050292021070958,0.09343637149767536,0.0
0.10592366527601066,-0.100333672801694,0.09338540952031726,0.0
0.10593198012494803,-0.10039536361639065,0.09335375945016855,0.0
0.10603068542846268,-0.10043318276800903,0.0933644882875071,0.0
0.10596067976482865,-0.10051847702485048,0.09339560191578888,0.0
0.10592607926441183,-0.10034306053436523,0.09327651182133101,0.0
0.10595531534615937,-0.10016496183454535,0.09335617343856972,0.0
0.1059145457642729,-0.10019097926509132,0.09340686719499436,0.0
0.10588155458945686,-0.10050533419911076,0.09332425514748754,0.0
0.10600842309098518,-0.10043506031454327,0.0933127216473486,0.0
0.1058812863685234,-0.1001386761830659,0.09333766619416073,0.0
0.10592822503187954,-0.10038865809305406,0.09336609761310788,0.0
0.10603631806806542,-0.10041092043053154,0.09335644165950319,0.0
0.10599152517217697,-0.10022397043990736,0.0932861677749357,0.0
0.10593680810175038,-0.10021297338163535,0.09331433097294939,0.0
0.10595021914842356,-0.10032750372022434,0.09337763111324682,0.0
0.10595612000895976,-0.10044981246588378,0.09333310643829185,0.0
0.1059292979156134,-0.10043693786107752,0.09326175966999051,0.0
0.10606930924288145,-0.10025803449845724,0.0932920686354719,0.0
0.1060009129048482,-0.10033099059235936,0.09329850593787503,0.0
0.10595558356709284,-0.10050345665257651,0.09333793441509419,0.0
0.10596255731136289,-0.10051284438524774,0.09334839503149928,0.0
0.10589979361293239,-0.10037524704638087,0.09329689661227425,0.0
0.10569487281976614,-0.10039187674425562,0.09335080901990045,0.0
0.10591856907827485,-0.10050882107124579,0.09334437171749732,0.0
0.10609210802222586,-0.10057212121154324,0.09330869833334665,0.0
0.1059166915317406,-0.10048602229190137,0.09321106591356587,0.0
0.10602397990512609,-0.10043345098894249,0.09327195206546213,0.0
0.10609076691755855,-0.10045464044268612,0.09330360213561084,0.0
0.10595612000895976,-0.10046402817535735,0.09328750887960302,0.0
0.10591722797360753,-0.10042486791907165,0.09325693169318816,0.0
0.10598508786977384,-0.10039590005825758,0.09325532236758738,0.0
0.10586921642651753,-0.10053939825766067,0.09328241268186721,0.0
0.10593627165988345,-0.10062281496796788,0.09325022616985157,0.0
0.10607762409181883,-0.10049487358270567,0.09320436039022928,0.0
0.10598052811390496,-0.10044927602401685,0.0931488386570023,0.0
0.10600627732351747,-0.10043774252387791,0.09321428456476744,0.0
0.10604624224260358,-0.10060082085142386,0.09324834862331732,0.0
0.10599340271871122,-0.1006094039212947,0.09310699619138196,0.0
0.10594297718322004,-0.10038329367438478,0.09303672230681448,0.0
0.10581154892582284,-0.10043452387267635,0.09324700751865,0.0
0.10590006183386586,-0.10066036589865279,0.09330145636814313,0.0
0.10603095364939615,-0.100666266759189,0.09316627301767744,0.0
0.10599635314897932,-0.10046349173349042,0.09323869266971263,0.0
0.10591052245027094,-0.10054100758326145,0.09325854101878894,0.0
0.10595504712522591,-0.10074378260896,0.09317941584341716,0.0
0.10608647538262313,-0.1005753398627448,0.09323332825104336,0.0
0.10596577596256446,-0.10043720608201098,0.09317619719221559,0.0
0.10601539683525524,-0.10057560808367827,0.09317217387821364,0.0
0.10603551340526503,-0.10085938583128284,0.09317351498288096,0.0
0.1059912569512435,-0.10067109473599134,0.09322018542530364,0.0
0.10596443485789714,-0.1004023373606607,0.09315286197100425,0.0
0.10590918134560362,-0.10041896705853545,0.09317861118061677,0.0
0.10580993960022206,-0.10066117056145318,0.09318826713422146,0.0
0.10613663269718084,-0.10073841819029072,0.09312282122645632,0.0
0.1059107906712044,-0.10053215629245715,0.09305549777215694,0.0
0.10587055753118485,-0.10051794058298355,0.09302116549267359,0.0
0.10608379317328849,-0.10066519387545514,0.09321777143690246,0.0
0.10612804962731,-0.10084597478460966,0.09312469877299057,0.0
0.10602585745166034,-0.10062898404943754,0.09296430265477929,0.0
0.10602478456792648,-0.10038275723251786,0.09311718858685358,0.0
0.1060349769633981,-0.10053778893205989,0.09312040723805515,0.0
0.10601459217245485,-0.10077167758604022,0.0930801740980356,0.0
0.1059891111837758,-0.10064829595664693,0.09303269899281252,0.0
0.1059373445436173,-0.10038061146505015,0.09302867567881057,0.0
0.1059107906712044,-0.1006123543515628,0.09302304303920783,0.0
0.1059676535090987,-0.10066412099172128,0.09304879224882034,0.0
0.10590998600840401,-0.10061771877023207,0.09298978364345833,0.0
0.10590730379906937,-0.1004119933142654,0.0930351129812137,0.0
0.1059743590324353,-0.10050560242004422,0.09303859985334872,0.0
0.10584909985650776,-0.10063837178210877,0.09309894956337805,0.0
0.10594565939255468,-0.10055093175779961,0.09303752696961487,0.0
0.10602263880045877,-0.1004023373606607,0.09293587123583213,0.0
0.10594163607855273,-0.10049299603617143,0.09294606363130375,0.0
0.10578928658834535,-0.10073439487628877,0.092899929630748,0.0
0.10603685450993235,-0.10053054696685637,0.09306086219082621,0.0
0.10596523952069753,-0.10040689711652959,0.09304611003948571,0.0
0.10572303601777983,-0.10041521196546696,0.09305093801628805,0.0
0.10578150818127491,-0.10058258182794833,0.09305227912095537,0.0
0.10615943147652525,-0.10063756711930838,0.09297932302705325,0.0
0.10606609059167989,-0.1003433287552987,0.09295464670117459,0.0
0.1059832103232396,-0.10031570199915193,0.09298254167825482,0.0
0.10582522819342949,-0.10045785909388769,0.09300534045759923,0.0
0.10585419605424357,-0.10064239509611073,0.09294579541037029,0.0
0.10602773499819458,-0.10049219137337104,0.0929058304912842,0.0
0.10603980494020045,-0.10040153269786031,0.09296510731757968,0.0
0.10603417230059771,-0.10053483850179179,0.09302438414387515,0.0
0.10599420738151161,-0.10071374186441207,0.0929744950502509,0.0
0.10592822503187954,-0.10080171833058815,0.09292272841009241,0.0
0.1059529013577582,-0.1003366232319621,0.09300641334133308,0.0
0.10595960688109479,-0.1003189206503535,0.09296725308504739,0.0
0.10595719289269362,-0.1005790949558133,0.09288088594447208,0.0
0.10597248148590105,-0.10063488490997374,0.09291334067742119,0.0
0.10593278478774842,-0.10037819747664897,0.09298790609692409,0.0
0.10587055753118485,-0.10046778326842584,0.0929715446199828,0.0
0.10601459217245485,-0.10077435979537486,0.0929087809215523,0.0
0.10604275537046855,-0.10066465743358821,0.09289188300274409,0.0
0.10593627165988345,-0.10042299037253741,0.09292541061942705,0.0
0.10598723363724155,-0.10041011576773115,0.09289671097954644,0.0
0.10597006749749988,-0.10059840686302268,0.09285379563019225,0.0
0.10601110530031982,-0.10062361963076827,0.09291119490995348,0.0
0.10591615508987368,-0.10052142745511858,0.09284923587432337,0.0
0.10592876147374647,-0.1004541040008192,0.09281490359483999,0.0
0.10603095364939615,-0.10048280364069981,0.09286720667686543,0.0
0.10599232983497736,-0.10057078010687592,0.09293748056143292,0.0
0.1057911641348796,-0.10042701368653936,0.0929117313518204,0.0
0.10563291378413603,-0.10032964948769205,0.09286103759539577,0.0
0.10601056885845289,-0.10043506031454327,0.0928556731767265,0.0
0.10615487172065637,-0.10058419115354911,0.09280551586216876,0.0
0.10597301792776798,-0.10050908929217925,0.09288920079340945,0.0
0.10582791040276412,-0.10036746863931043,0.0929154864448889,0.0
0.10596041154389518,-0.10055334574620078,0.09288920079340945,0.0
0.10591535042707328,-0.10065285571251581,0.09288142238633901,0.0
0.10610230041769748,-0.10048119431509903,0.09283904347885175,0.0
0.10608996225475816,-0.10033930544129674,0.09284548078125487,0.0
0.10598991584657619,-0.10056970722314207,0.09286640201406504,0.0
0.10600842309098518,-0.10069577106187,0.0929597428989104,0.0
0.10592205595040988,-0.1006263018401029,0.09285406385112571,0.0
0.1058627791241144,-0.10068933375946687,0.09281758580417462,0.0
0.10590998600840401,-0.10029370788260791,0.09305362022562269,0.0
0.10605723930087559,-0.10048870450123601,0.09302518880667554,0.0
0.1060593850683433,-0.10049728757110685,0.09289322410741141,0.0
0.10596148442762904,-0.1003071189292811,0.09287713085140359,0.0
0.10595746111362708,-0.10039831404665875,0.09294069921263448,0.0
0.10600949597471904,-0.10060055263049039,0.09288732324687521,0.0
0.10602719855632765,-0.10067914136399525,0.09281436715297306,0.0
0.10603685450993235,-0.10050855285031232,0.09282804642057971,0.0
0.1060097641956525,-0.10039804582572529,0.09288839613060906,0.0
0.10599179339311043,-0.10049111848963718,0.09297288572465012,0.0
0.1059255428225449,-0.10053349739712447,0.09291924153795739,0.0
0.10590944956653708,-0.10042164926787009,0.09278405818749166,0.0
0.10591239999680518,-0.10037927036038283,0.09279827389696524,0.0
0.10570318766870351,-0.10050077444324187,0.0928607693744623,0.0
0.10582951972836491,-0.10061074502596201,0.09275830897787915,0.0
0.10616238190679335,-0.10044793491934953,0.0927837899665582,0.0
0.10593466233428267,-0.10033152703422629,0.09278137597815703,0.0
0.10599447560244507,-0.10047663455923014,0.09280390653656798,0.0
0.10610256863863095,-0.10058526403728296,0.09274865302427446,0.0
0.10603739095179927,-0.10052142745511858,0.09268052490717468,0.0
0.1058568782635782,-0.10040797000026344,0.09273980173347016,0.0
0.1059588022182944,-0.10042701368653936,0.09276152762908071,0.0
0.10598374676510652,-0.1006780684802614,0.092748384803341,0.0
0.1059529013577582,-0.10046778326842584,0.09276850137335077,0.0
0.10612053944117301,-0.10038087968598361,0.0927180758378596,0.0
0.10590864490373669,-0.10041869883760199,0.09268749865144474,0.0
0.10599823069551356,-0.10070837744574279,0.09280256543190066,0.0
0.10611597968530413,-0.10065822013118508,0.0927210262681277,0.0
0.10609693599902821,-0.10022236111430657,0.09265397103476178,0.0
0.10600037646298127,-0.10035700802290534,0.09267945202344083,0.0
0.10600064468391474,-0.10056595213007358,0.09274114283813747,0.0
0.10596067976482865,-0.1007172287365471,0.09260488660393792,0.0
0.10593412589241574,-0.10050989395497964,0.09249142914908279,0.0
0.10597194504403412,-0.1003462791855668,0.0925866475804624,0.0
0.10595638822989323,-0.10058928735128492,0.09261937053434496,0.0
0.1059824056604392,-0.10066465743358821,0.09257618696405731,0.0
0.10595397424149205,-0.10049889689670763,0.09257752806872463,0.0
0.1059529013577582,-0.10039134030238869,0.09261883409247804,0.0
0.10592312883414373,-0.1006351531309072,0.09256733567325301,0.0
0.1058236188678287,-0.10074941524856273,0.09252710253323346,0.0
0.10559294886504994,-0.10059116489781916,0.0923819950082296,0.0
0.10600493621885015,-0.10046939259402662,0.09259362132473245,0.0
0.1062085159073491,-0.10058472759541603,0.09270868810518837,0.0
0.10596658062536485,-0.10079823145845312,0.09263197691821776,0.0
0.1058568782635782,-0.10058740980475067,0.09257135898725496,0.0
0.10594431828788736,-0.10036076311597383,0.09256411702205145,0.0
0.10598374676510652,-0.10055522329273503,0.09255016953351133,0.0
0.10599018406750965,-0.10073063978322028,0.09255580217311407,0.0
0.1059588022182944,-0.10059304244435341,0.092556338614981,0.0
0.10593949031108502,-0.10041306619799925,0.09259093911539781,0.0
0.10595370602055859,-0.1004621506288231,0.0925946942084663,0.0
0.10595209669495781,-0.1008153975981948,0.09253300339376966,0.0
0.10588530968252535,-0.10080305943525547,0.09250457197482251,0.0
0.1058273739608972,-0.10026956799859618,0.09258745224326279,0.0
0.10599393916057814,-0.10035647158103841,0.09262956292981658,0.0
0.10603470874246464,-0.10056568390914011,0.09261561544127647,0.0
0.10596443485789714,-0.10062898404943754,0.09256545812671876,0.0
0.10589791606639815,-0.10044954424495031,0.09253219873096927,0.0
0.10589121054306155,-0.10049326425710489,0.0924160590667795,0.0
0.1059145457642729,-0.10061905987489939,0.0924485137997286,0.0
0.10560743279545698,-0.1006330073634395,0.0926464608486248,0.0
0.10569675036630038,-0.10045437222175266,0.09258342892926083,0.0
0.10599313449777775,-0.10039831404665875,0.09252576142856614,0.0
0.10615353061598905,-0.10066894896852363,0.09256599456858569,0.0
0.1060038633351163,-0.10069925793400503,0.09258235604552698,0.0
0.1053295559083886,-0.1005664885719405,0.09251154571909256,0.0
0.10471264776142213,-0.1005190134667174,0.09246085196266793,0.0
0.10608486605702235,-0.10068531044546492,0.09250966817255832,0.0
0.10645420628240183,-0.10071079143414396,0.09254105002177357,0.0
0.1060888893710243,-0.10059760220022229,0.09258101494085966,0.0
0.10617472006973268,-0.10053591138552564,0.09255419284751329,0.0
0.10592500638067798,-0.10051123505964696,0.09254239112644089,0.0
0.10610042287116324,-0.10071803339934748,0.0924699714744057,0.0
0.10624445751243324,-0.10058526403728296,0.09246085196266793,0.0
0.10614762975545285,-0.10048977738496986,0.09252281099829804,0.0
0.10611302925503603,-0.10062952049130447,0.09251986056802994,0.0
0.10605428887060749,-0.10079313526071731,0.09235517291488324,0.0
0.10603390407966425,-0.10065419681718313,0.09245414643933134,0.0
0.10603470874246464,-0.10041896705853545,0.09261829765061111,0.0
0.10592607926441183,-0.10053001052498944,0.09255204708004558,0.0
0.10593090724121418,-0.10075504788816547,0.0925201287889634,0.0
0.10575334498326122,-0.10076094874870167,0.09253058940536849,0.0
0.10553689068995603,-0.10048468118723405,0.09252629787043307,0.0
0.10606582237074642,-0.10050345665257651,0.09249813467241938,0.0
0.10631124452486569,-0.10067350872439251,0.09251476437029413,0.0
0.1059343941133492,-0.10078428396991301,0.09242303281104955,0.0
0.10589255164772887,-0.10054368979259609,0.09247694521867575,0.0
0.10604624224260358,-0.10048629051283484,0.09244127183452508,0.0
0.10589335631052926,-0.10070033081773888,0.09244744091599474,0.0
0.10590059827573278,-0.10090659271557245,0.09239379672930201,0.0
0.10601137352125328,-0.10047931676856478,0.0924662163813372,0.0
0.1059861607535077,-0.10047422057082897,0.09240988998530983,0.0
0.10603229475406346,-0.10074887880669581,0.0924190094970476,0.0
0.10595182847402435,-0.10073359021348838,0.09242732434598497,0.0
0.1055304533875529,-0.10063998110770955,0.09243644385772273,0.0
0.10561708874906167,-0.10050560242004422,0.09247345834654072,0.0
0.10617096497666419,-0.1006810189105295,0.09250618130042329,0.0
0.10600305867231591,-0.10084382901714195,0.09249384313748396,0.0
0.10588504146159189,-0.10066036589865279,0.09250162154455441,0.0
0.10576192805313206,-0.10051284438524774,0.09242571502038419,0.0
0.10580993960022206,-0.10057480342087788,0.09242303281104955,0.0
0.10619885995374441,-0.10091463934357636,0.0924699714744057,0.0
0.10593063902028071,-0.1007791877721772,0.09241498618304564,0.0
0.10597194504403412,-0.10045383577988573,0.09245065956719631,0.0
0.10610981060383447,-0.1005281329784552,0.09238092212449575,0.0
0.10602800321912804,-0.10076282629523592,0.0923975518223705,0.0
0.10594029497388541,-0.10065285571251581,0.09243805318332352,0.0
0.1059440500669539,-0.10047448879176243,0.09237072972902413,0.0
0.10587431262425334,-0.10051150328058042,0.09247962742801039,0.0
0.10558061070211061,-0.10071749695748056,0.09250698596322368,0.0
0.10599769425364663,-0.1007105232132105,0.09250215798642134,0.0
0.10595853399736094,-0.10053135162965676,0.09244770913692821,0.0
0.10584427187970541,-0.100507211745645,0.0923916509618343,0.0
0.10587055753118485,-0.10069174774786804,0.09246353417200256,0.0
0.10579813787914966,-0.10076819071390519,0.09249679356775206,0.0
0.10577560732073871,-0.10078106531871145,0.09238521365943117,0.0
0.10579652855354887,-0.10061503656089743,0.09236295132195368,0.0
0.10576246449499899,-0.10063059337503832,0.09242732434598497,0.0
0.10553179449222022,-0.10071293720161167,0.09244529514852703,0.0
0.10566992827295402,-0.10065151460784849,0.09241203575277754,0.0
0.10568226643589335,-0.10049996978044148,0.09237636236862687,0.0
0.10583756635636882,-0.10055522329273503,0.09245495110213173,0.0
0.10579062769301267,-0.10077516445817525,0.09248284607921195,0.0
0.10573698350631994,-0.10071240075974475,0.09232540039126877,0.0
0.10586170624038055,-0.10054905421126537,0.09233961610074234,0.0
0.10579545566981502,-0.10061664588649821,0.09250725418415714,0.0
0.10571338006417513,-0.10072849401575257,0.092508327067891,0.0
0.10578740904181111,-0.1007231295970833,0.09247453123027458,0.0
0.10573993393658804,-0.10048012143136517,0.09245575576493212,0.0
0.10575710007632971,-0.10055227286246693,0.09246058374173446,0.0
0.10580859849555474,-0.10078830728391497,0.09251020461442525,0.0
0.10552026099208128,-0.10061610944463129,0.09240291624103977,0.0
0.1055637127833024,-0.1004806578732321,0.09236965684529028,0.0
0.10577989885567413,-0.10044096117507947,0.09242544679945072,0.0
0.105821473100361,-0.1006625116661205,0.09243107943905346,0.0
0.10582817862369759,-0.1006898702013338,0.09239513783396933,0.0
0.10578472683247647,-0.10052545076912056,0.09238628654316502,0.0
0.10562915869106754,-0.10054905421126537,0.09238333611289692,0.0
0.10559563107438458,-0.10061932809583285,0.09240747599690866,0.0
0.1054979986546038,-0.10058043606048062,0.0923790445779615,0.0
0.10568602152896184,-0.10058740980475067,0.09233612922860732,0.0
0.10582871506556452,-0.10053349739712447,0.09241149931091061,0.0
0.10573778816912033,-0.10074512371362732,0.0923739483802257,0.0
0.10586680243811636,-0.10094548475092469,0.09242866545065229,0.0
0.1059225923922768,-0.10049219137337104,0.09238843231063273,0.0
0.10573161908765066,-0.10050238376884266,0.09222535398308682,0.0
0.10577668020447256,-0.1005635381416724,0.09224681165776391,0.0
0.1056412286330734,-0.10077462801630832,0.09231493977486369,0.0
0.10551811522461357,-0.10061315901436318,0.09240774421784212,0.0
0.1057106978548405,-0.10043398743080942,0.09239567427583625,0.0
0.10595370602055859,-0.1005227685597859,0.09239030985716698,0.0
0.10568950840109687,-0.10076255807430246,0.0923613419963529,0.0
0.10581289003049016,-0.10073090800415374,0.09229455498392045,0.0
0.1058096713792886,-0.10057399875807749,0.09226746466964061,0.0
0.10580993960022206,-0.10052625543192095,0.09230474737939207,0.0
0.10573912927378765,-0.10072178849241598,0.09235597757768363,0.0
0.10567261048228865,-0.1006751180499933,0.09228543547218268,0.0
0.10566778250548631,-0.1005879462466176,0.09230635670499285,0.0
0.10578123996034144,-0.10059947974675654,0.09236026911261905,0.0
0.1059078402409363,-0.10082961330766838,0.0923192313097991,0.0
0.10577694842540603,-0.10085536251728089,0.09223688748322575,0.0
0.10561896629559592,-0.10046134596602271,0.09235007671714743,0.0
0.10547466343339246,-0.10044766669841607,0.09228945878618464,0.0
0.10579089591394614,-0.10074029573682497,0.0923310330308715,0.0
0.10583756635636882,-0.1008419514706077,0.09237636236862687,0.0
0.10582549641436295,-0.10056970722314207,0.09232379106566799,0.0
0.1058812863685234,-0.1005190134667174,0.09227577951857799,0.0
0.1058244235306291,-0.10070247658520659,0.09235892800795173,0.0
0.10575173565766044,-0.10076041230683475,0.0923650970894214,0.0
0.1058059162862201,-0.10072071560868212,0.09225378540203397,0.0
0.10582630107716334,-0.1007193745040148,0.092316280879531,0.0
0.10562245316773095,-0.10085187564514586,0.09245656042773251,0.0
0.10580725739088742,-0.10075504788816547,0.09242517857851726,0.0
0.10584561298437273,-0.10068504222453145,0.09233317879833922,0.0
0.10580242941408508,-0.10062281496796788,0.09225110319269933,0.0
0.1058265692980968,-0.10073895463215765,0.09237797169422765,0.0
0.1057490534483258,-0.10078428396991301,0.09246407061386949,0.0
0.1056567854472143,-0.10078240642337877,0.09234095720540966,0.0
0.10574422547152346,-0.10060001618862346,0.09228168037911419,0.0
0.10583649347263496,-0.1005938471071538,0.09235356358928246,0.0
0.10582388708876217,-0.10078482041177994,0.09247667699774229,0.0
0.10581879089102636,-0.10076121696963514,0.0924359074158558,0.0
0.10565329857507927,-0.10051150328058042,0.09241310863651139,0.0
0.1057128436223082,-0.10059277422341995,0.09241874127611413,0.0
0.10583166549583262,-0.10077811488844335,0.0924632659510691,0.0
0.10571418472697552,-0.10082263956339832,0.09247667699774229,0.0
0.10556263989956854,-0.10062013275863324,0.09241632728771296,0.0
0.10566966005202055,-0.10044525271001489,0.09243456631118849,0.0
0.10603819561459966,-0.10064373620077804,0.09246541171853681,0.0
0.10588477324065843,-0.10086609135461944,0.0924005022526386,0.0
0.1057823128440753,-0.10062281496796788,0.0923495402752805,0.0
0.10581047604208899,-0.10058740980475067,0.0923613419963529,0.0
0.1058657295543825,-0.10070220836427313,0.0924876740560143,0.0
0.10568736263362916,-0.10083819637753921,0.09242947011345268,0.0
0.10564900704014385,-0.10070515879454123,0.09233264235647229,0.0
0.10578070351847452,-0.10062281496796788,0.09237046150809067,0.0
0.10581986377476021,-0.10077114114417329,0.09245360999746441,0.0
0.10571686693631016,-0.10098169457694228,0.09235570935675017,0.0
0.10567073293575441,-0.10079903612125352,0.09234900383341357,0.0
0.10571767159911055,-0.10058150894421447,0.0924249103575838,0.0
0.10578123996034144,-0.10073171266695413,0.09239486961303586,0.0
0.10579062769301267,-0.10094146143692273,0.0923849454384977,0.0
0.1057911641348796,-0.10084087858687385,0.09247560411400843,0.0
0.10582871506556452,-0.10066304810798743,0.09243242054372078,0.0
0.10577104756486982,-0.10081352005166055,0.09238092212449575,0.0
0.10555915302743352,-0.10095219027426128,0.09237475304302609,0.0
0.10545776551458425,-0.10103265655430038,0.09241498618304564,0.0
0.10584588120530619,-0.10065822013118508,0.09236187843821983,0.0
0.10601968837019067,-0.10074780592296195,0.09236187843821983,0.0
0.10580135653035122,-0.10089479099450005,0.09237475304302609,0.0
0.10585070918210854,-0.1008339048426038,0.09230099228632357,0.0
0.10588986943839424,-0.10075746187656665,0.09232566861220223,0.0
0.10583863924010267,-0.10080386409805586,0.0923406889844762,0.0
0.10583381126330033,-0.10082371244713217,0.09231681732139793,0.0
0.10580403873968586,-0.10094414364625737,0.09229670075138816,0.0
0.10575254032046083,-0.10082746754020067,0.09243081121812,0.0
0.10571820804097748,-0.10074807414389542,0.09242303281104955,0.0
0.10573912927378765,-0.10089318166889927,0.09243242054372078,0.0
0.10581074426302245,-0.10096613776280139,0.09240828065970905,0.0
0.10577587554167217,-0.10082022557499715,0.09235463647301631,0.0
0.10574368902965653,-0.10068665155013223,0.09236536531035486,0.0
0.1057726568904706,-0.10084677944741005,0.0924485137997286,0.0
0.1058236188678287,-0.10103721631016926,0.09244529514852703,0.0
0.10577775308820642,-0.10096908819306949,0.09235302714741553,0.0
0.10576434204153323,-0.1008153975981948,0.09230072406539011,0.0
0.10574529835525731,-0.10081137428419285,0.09244207649732547,0.0
0.10578982303021228,-0.10091329823890904,0.09248365074201234,0.0
0.10572893687831603,-0.1009320737042515,0.09233398346113961,0.0
0.10544676845631223,-0.1007370770856234,0.09238548188036463,0.0
0.10548592871259793,-0.1007976950165862,0.09237341193835877,0.0
0.10553474492248832,-0.10102997434496575,0.09239245562463469,0.0
0.10592178772947641,-0.10105813754297943,0.09223956969256039,0.0
0.10589925717106546,-0.10077596912097564,0.0921641996102571,0.0
0.10583005617023183,-0.1008006454468543,0.09242437391571687,0.0
0.10589228342679541,-0.10111580504367412,0.0923975518223705,0.0
0.1058088667164882,-0.10096640598373485,0.09235812334515134,0.0
0.10594726871815546,-0.10067163117785827,0.09236053733355251,0.0
0.10594512295068775,-0.1006861151082653,0.09240908532250944,0.0
0.10590113471759971,-0.1009017647387701,0.0924278607878519,0.0
0.10582281420502831,-0.10096640598373485,0.09242544679945072,0.0
0.10573483773885223,-0.1008604587150167,0.09240425734570709,0.0
0.10577426621607139,-0.10066358454985436,0.09237207083369145,0.0
0.10588584612439228,-0.10084007392407346,0.09247909098614346,0.0
0.10590140293853317,-0.10093636523918692,0.0924927702537501,0.0
0.1058147675770244,-0.10077382335350793,0.09246567993947027,0.0
0.1058206684375606,-0.10067645915466061,0.09247560411400843,0.0
0.10584668586810658,-0.10085348497074664,0.09244744091599474,0.0
0.10579009125114575,-0.10092483173904798,0.09241740017144681,0.0
0.10574583479712424,-0.10070730456200894,0.09244314938105933,0.0
0.10570157834310273,-0.10073627242282301,0.09237233905462491,0.0
0.10574261614592267,-0.100821298458731,0.09239621071770318,0.0
0.10581020782115552,-0.10097069751867027,0.09244475870666011,0.0
0.1058450765425058,-0.1008339048426038,0.09246755748600452,0.0
0.10586680243811636,-0.1006743133871929,0.09241927771798106,0.0
0.10559884972558614,-0.10073600420188955,0.09242035060171491,0.0
0.10534403983879564,-0.10089854608756854,0.09239513783396933,0.0
0.10568280287776027,-0.10073063978322028,0.09244475870666011,0.0
0.10596818995096563,-0.10070542701547469,0.09236295132195368,0.0
0.10583220193769954,-0.1007400275158915,0.09229911473978933,0.0
0.10599581670711239,-0.1008309544123357,0.0924367120786562,0.0
0.10585714648451167,-0.10085911761034938,0.09241579084584603,0.0
0.10566670962175245,-0.10070676812014201,0.09232674149593609,0.0
0.10584829519370736,-0.10061557300276436,0.09242947011345268,0.0
0.10592876147374647,-0.1008368552728719,0.09241793661331374,0.0
0.1058155722398248,-0.1010584057639129,0.09236938862435681,0.0
0.10570345588963698,-0.10081003317952553,0.0923701932871572,0.0
0.105754954308862,-0.1006869197710657,0.09235356358928246,0.0
0.1058871872290596,-0.1007341266553553,0.09244368582292625,0.0
0.10587887238012222,-0.10078535685364687,0.09240318446197324,0.0
0.10583595703076804,-0.10076202163243553,0.09236938862435681,0.0
0.10576595136713401,-0.10054985887406576,0.09238682298503195,0.0
0.10579465100701463,-0.10066492565452168,0.09244609981132743,0.0
0.10581718156542558,-0.10087360154075642,0.09244744091599474,0.0
0.10576434204153323,-0.10072152027148251,0.09240318446197324,0.0
0.10580806205368781,-0.10056461102540626,0.09240479378757402,0.0
0.10578687259994418,-0.10067860492212832,0.09239621071770318,0.0
0.10583810279823574,-0.10089023123863117,0.09237207083369145,0.0
0.10584105322850385,-0.1008958638782339,0.09238414077569732,0.0
0.10574932166925927,-0.10055897838580352,0.09247694521867575,0.0
0.1056685871682867,-0.10056112415327123,0.09249464780028435,0.0
0.1056050188070558,-0.10083953748220653,0.09246058374173446,0.0
0.10558382935331218,-0.10076684960923787,0.09240157513637245,0.0
0.10584749053090697,-0.10055441862993464,0.0924182048342472,0.0
0.10585205028677586,-0.10057453519994441,0.09250188976548787,0.0
0.10577989885567413,-0.10082988152860184,0.0925053766376229,0.0
0.10568065711029256,-0.1008360506100715,0.09244931846252899,0.0
0.10580028364661737,-0.10064802773571346,0.09243483453212195,0.0
0.10575656363446279,-0.10061289079342972,0.09248821049788122,0.0
0.10585151384490893,-0.10082612643553335,0.09245468288119826,0.0
0.10587297151958602,-0.10092134486691295,0.09247721343960921,0.0
0.10581208536768977,-0.10069657572467039,0.09241042642717676,0.0
0.10577185222767022,-0.100570243665009,0.09237502126395955,0.0
0.10562164850493055,-0.10080091366778776,0.09244073539265815,0.0
0.10585526893797742,-0.10114074959048625,0.09240130691543899,0.0
0.10585017274024161,-0.1008478523311439,0.09237153439182452,0.0
0.10580698916995396,-0.10041950350040238,0.09242249636918262,0.0
0.10581798622822597,-0.10073224910882106,0.0924337616483881,0.0
0.10580189297221815,-0.10097337972800491,0.0924219599273157,0.0
0.10573966571565457,-0.10065526970091698,0.09233881143794195,0.0
0.10572759577364871,-0.10056326992073894,0.09234900383341357,0.0
0.10577963063474066,-0.10079823145845312,0.09241096286904368,0.0
0.10577131578580329,-0.10093395125078575,0.09240693955504173,0.0
0.10567609735442368,-0.10088164816876033,0.0923916509618343,0.0
0.10569165416856457,-0.10056595213007358,0.0923857501012981,0.0
0.10553528136435525,-0.10065634258465084,0.09237233905462491,0.0
0.1059166915317406,-0.1009017647387701,0.09241123108997715,0.0
0.105976504799903,-0.10074217328335922,0.09235946444981866,0.0
0.10586626599624943,-0.10063139803783872,0.09242464213665033,0.0
0.10584051678663692,-0.1006743133871929,0.09243537097398888,0.0
0.10579921076288351,-0.1008516074242124,0.09241176753184407,0.0
0.10567985244749217,-0.10088245283156072,0.09228275326284804,0.0
0.10576353737873284,-0.1006145001190305,0.09237475304302609,0.0
0.10585312317050971,-0.10064883239851385,0.0924337616483881,0.0
0.10582791040276412,-0.10080815563299128,0.09242383747384994,0.0
0.10576273271593245,-0.10080976495859206,0.09241981415984798,0.0
0.10548566049166447,-0.10064588196824575,0.09235490469394977,0.0
0.10559804506278575,-0.10073010334135335,0.0923280826006034,0.0
0.105976504799903,-0.10085294852887972,0.09243456631118849,0.0
