-0.13835103968990323,-0.030977908489454805,0.15671854099256288,0.0
-0.13837303380644725,-0.031057301885760055,0.1567641385512517,0.0
-0.13836042742257446,-0.031054351455491954,0.15674107155097383,0.0
-0.1383829579809854,-0.031001243710666145,0.1567906924236646,0.0
-0.13840682964406367,-0.03101250898987162,0.15671961387629674,0.0
-0.138352649015504,-0.03106132519976201,0.1567965932842008,0.0
-0.13835211257363708,-0.030925605407429387,0.15687410913397182,0.0
-0.13835613588763904,-0.030978713152255196,0.15663968403812456,0.0
-0.13835989098070753,-0.03100446236186771,0.1566689201198721,0.0
-0.13837249736458032,-0.030994538187329553,0.15681697807514405,0.0
-0.13837222914364686,-0.03107312692083441,0.1567450948649758,0.0
-0.1383083925614825,-0.031012240768938156,0.15681536874954327,0.0
-0.13834996680616937,-0.03103798997855067,0.1567464359696431,0.0
-0.13836954693431222,-0.030988637326793352,0.1567228325274983,0.0
-0.13839019994618892,-0.030976567384787487,0.1567043252830893,0.0
-0.1383762524576488,-0.030985955117458715,0.15670486172495623,0.0
-0.1383749113529815,-0.03096959364051743,0.15674965462084467,0.0
-0.13837169270177993,-0.03096503388464855,0.15671049436455897,0.0
-0.1383867130740539,-0.030890736686079105,0.15670083841095428,0.0
-0.13841568093486797,-0.030955109710110392,0.156654972631332,0.0
-0.138382153318185,-0.030929092279564415,0.15670244773655506,0.0
-0.13836766938777798,-0.030934188477300225,0.1566246636658506,0.0
-0.13834567527123395,-0.03097254407078553,0.15691970669266064,0.0
-0.138352649015504,-0.03095484148917693,0.15690763675065478,0.0
-0.13833226422456077,-0.03096369277998123,0.15676333388845132,0.0
-0.1383674011668445,-0.03096959364051743,0.15672631939963333,0.0
-0.13839100460898932,-0.030985686896525252,0.15687008581996986,0.0
-0.1383749113529815,-0.030957523698511565,0.15667938073627719,0.0
-0.13836042742257446,-0.030988905547726816,0.15663539250318914,0.0
-0.13833011845709306,-0.030963961000914694,0.1567088850389582,0.0
-0.1383496985852359,-0.030988637326793352,0.15672846516710104,0.0
-0.13837142448084647,-0.030940089337836426,0.15685372434302858,0.0
-0.1383623049691087,-0.03100365769906732,0.15685908876169785,0.0
-0.13834138373629853,-0.030981663582523297,0.15652595836233596,0.0
-0.13833896974789736,-0.03080222377803609,0.1566150077122459,0.0
-0.13831187943361753,-0.030832264522584023,0.15669145067828305,0.0
-0.1383660600621772,-0.030943039768104526,0.15668206294561182,0.0
-0.13836123208537485,-0.030878398523139776,0.1567745991676568,0.0
-0.1383749113529815,-0.030910316814221957,0.15660722930517545,0.0
-0.13833119134082691,-0.030929092279564415,0.15676333388845132,0.0
-0.13834862570150205,-0.030870351895135865,0.15675072750457852,0.0
-0.13836284141097563,-0.030921582093427432,0.15677433094672333,0.0
-0.13836954693431222,-0.03092292319809475,0.15670325239935545,0.0
-0.13840629320219675,-0.030874106988204357,0.15665068109639657,0.0
-0.1384213135744707,-0.030933652035433298,0.15663539250318914,0.0
-0.1383963690276586,-0.03087732563940592,0.15668608625961378,0.0
-0.13839797835325937,-0.03090763460488732,0.15665819128253355,0.0
-0.1383859084112535,-0.030895832883814915,0.156695473992285,0.0
-0.13842265467913803,-0.030969861861450895,0.15663834293345724,0.0
-0.13842962842340809,-0.031025920036544804,0.15658094365369601,0.0
-0.1383888588415216,-0.030964229221848157,0.15664773066612847,0.0
-0.13839395503925742,-0.030830118755116313,0.15653051811820484,0.0
-0.1383904681671224,-0.030848357778591844,0.15656753260702283,0.0
-0.1383357510966958,-0.030970398303317822,0.15689798079705009,0.0
-0.1383674011668445,-0.03095993768691274,0.1569229253438622,0.0
-0.13842238645820457,-0.03096369277998123,0.15669493755041808,0.0
-0.13837759356231613,-0.03091863166315933,0.15656806904888976,0.0
-0.13836632828311066,-0.030926410070229778,0.15665550907319892,0.0
-0.13840039234166054,-0.030963156338114303,0.15657987076996216,0.0
-0.13838993172525546,-0.030924800744628996,0.1566268094333183,0.0
-0.13838188509725155,-0.030923191419028214,0.15663324673572143,0.0
-0.13837947110885038,-0.030977908489454805,0.1567590423535159,0.0
-0.13839154105085624,-0.030879739627807094,0.15671451767856093,0.0
-0.1383808122135177,-0.030901465523417656,0.1567383893416392,0.0
-0.138400660562594,-0.03093821179130218,0.15661929924718132,0.0
-0.13844920855155093,-0.03095645081477771,0.1566142030494455,0.0
-0.13843445640021043,-0.030943576209971454,0.15661661703784668,0.0
-0.13839878301605976,-0.031000707268799218,0.15656243640928702,0.0
-0.13839073638805585,-0.03097603094292056,0.15666999300360596,0.0
-0.1383963690276586,-0.03099802505946458,0.15681483230767634,0.0
-0.138408170748731,-0.031069908269632848,0.1566992290853535,0.0
-0.13839207749272317,-0.030986491559325643,0.15668233116654529,0.0
-0.13838510374845311,-0.03095054995424151,0.15661393482851205,0.0
-0.13840682964406367,-0.031002048373466536,0.15662788231705216,0.0
-0.13837544779484842,-0.031002584815333464,0.15659542758410305,0.0
-0.13833682398042965,-0.030939821116902962,0.15673436602763724,0.0
-0.13842104535353725,-0.031028870466812904,0.15667026122453942,0.0
-0.13839368681832395,-0.03101840985040782,0.1566828676084122,0.0
-0.13838134865538462,-0.031028334024945977,0.15667669852694255,0.0
-0.1384309695280754,-0.031037453536683742,0.1566327102938545,0.0
-0.13841648559766837,-0.03100151193159961,0.1566984244225531,0.0
-0.13835479478297172,-0.031010899664270838,0.15675180038831238,0.0
-0.13837893466698345,-0.031019482734141676,0.15667830785254333,0.0
-0.13842265467913803,-0.031040672187885306,0.1567708440745883,0.0
-0.13844759922595015,-0.031096462142045752,0.15658577163049836,0.0
-0.13843955259794624,-0.031002584815333464,0.1566201039099817,0.0
-0.13844518523754898,-0.03106722606029821,0.15668420871307953,0.0
-0.1384360657258112,-0.031038526420417597,0.15675367793484662,0.0
-0.13842640977220652,-0.0309513546170419,0.1569001265645178,0.0
-0.1384360657258112,-0.03096503388464855,0.15671559056229478,0.0
-0.13843204241180926,-0.031044427280953798,0.15697817885615573,0.0
-0.13843713860954507,-0.03102699292027866,0.15681831917981137,0.0
-0.1384642289238249,-0.0310562290020262,0.15655868131621853,0.0
-0.1384642289238249,-0.031035575990149496,0.1570884176598093,0.0
-0.1384398208188797,-0.031000707268799218,0.15678103647005992,0.0
-0.1384132669464668,-0.03099802505946458,0.15657396990942596,0.0
-0.13846959334249417,-0.031060252316028155,0.1564776785943125,0.0
-0.13844518523754898,-0.030992660640795307,0.15670352062028892,0.0
-0.13844679456314976,-0.0310111678852043,0.1565935500375688,0.0
-0.1384642289238249,-0.03102189672254285,0.15685372434302858,0.0
-0.13842748265594038,-0.03099587929199687,0.15723379340574664,0.0
-0.1384111211789991,-0.030998829722264972,0.1570122429147056,0.0
-0.13845350008648635,-0.031036917094816815,0.15662841875891909,0.0
-0.1384612784935568,-0.0310473777112219,0.15635483340678613,0.0
-0.13847415309836306,-0.03103879464135106,0.15644254165202875,0.0
-0.13843257885367619,-0.031050596362423463,0.15648304301298177,0.0
-0.13846825223782686,-0.031076882013902903,0.15639828519800725,0.0
-0.13850955826158026,-0.030951086396108437,0.15670781215522434,0.0
-0.1384840772729012,-0.030950281733308046,0.15667026122453942,0.0
-0.13850660783131216,-0.030955914372910783,0.15651415664126356,0.0
-0.1384693251215607,-0.030945721977439163,0.15660776574704238,0.0
-0.1384532318655529,-0.031004730582801173,0.15664504845679383,0.0
-0.13841165762086602,-0.03090897570955464,0.15684433661035735,0.0
-0.13848622304036892,-0.03094035755876989,0.15671344479482707,0.0
-0.1384923921218386,-0.030994538187329553,0.15659542758410305,0.0
-0.13848810058690317,-0.031016532303873575,0.15661447127037897,0.0
-0.1384709344471615,-0.030967179652116258,0.15659891445623808,0.0
-0.13850151163357635,-0.031009290338670056,0.15658362586303065,0.0
-0.13848434549383468,-0.03096369277998123,0.15672041853909713,0.0
-0.13847173910996188,-0.030923191419028214,0.15659247715383495,0.0
-0.1384819315054335,-0.030951622837975364,0.15648036080364713,0.0
-0.13850231629637674,-0.031028065804012513,0.15672631939963333,0.0
-0.13846261959822412,-0.03105032814149,0.15669386466668422,0.0
-0.1384414301444805,-0.030945185535572236,0.15675931057444936,0.0
-0.1384945378893063,-0.03099802505946458,0.1566740163176079,0.0
-0.13849507433117322,-0.030963156338114303,0.15651040154819507,0.0
-0.13848675948223585,-0.030899319755949946,0.15656592328142205,0.0
-0.13848810058690317,-0.030922654977161287,0.1565530486766158,0.0
-0.13849561077304015,-0.031041208629752234,0.156617958142514,0.0
-0.13846905690062725,-0.031070444711499775,0.15662573654958445,0.0
-0.13850902181971333,-0.03109780324671307,0.15655412156034965,0.0
-0.13849024635437088,-0.0309033430699519,0.15662117679371557,0.0
-0.1384982929823748,-0.030941698663437208,0.15663968403812456,0.0
-0.1385114358081145,-0.031020287396942067,0.1566024013283731,0.0
-0.13847737174956462,-0.031044427280953798,0.15657531101409328,0.0
-0.13847361665649613,-0.03097764026852134,0.15661098439824395,0.0
-0.13852377397105384,-0.030984614012791397,0.15658577163049836,0.0
-0.13852591973852155,-0.031018141629474357,0.15638889746533602,0.0
-0.13852806550598926,-0.031035575990149496,0.15661313016571166,0.0
-0.13851063114531412,-0.03102699292027866,0.15663083274732026,0.0
-0.13849990230797557,-0.03104174507161916,0.15648170190831445,0.0
-0.13851170402904797,-0.031084392200039886,0.15667964895721065,0.0
-0.13850687605224563,-0.03101545942013972,0.1567102261436255,0.0
-0.13850499850571138,-0.031045768385621116,0.15659381825850227,0.0
-0.1384982929823748,-0.031077150234836367,0.15669896086442003,0.0
-0.13853423458745892,-0.031151983875272734,0.15657343346755903,0.0
-0.13854335409919669,-0.03110584987471698,0.15665470441039853,0.0
-0.13852001887798535,-0.031058642990427373,0.15666704257333786,0.0
-0.13851277691278183,-0.031036112432016424,0.15649699050152188,0.0
-0.13850794893597948,-0.031036917094816815,0.15653802830434183,0.0
-0.13852860194785618,-0.03104174507161916,0.15643422680309138,0.0
-0.13848354083103429,-0.031083587537239495,0.15669010957361573,0.0
-0.13849990230797557,-0.03110799564218469,0.15662359078211674,0.0
-0.13858358723921624,-0.031119260921390165,0.15647365528031054,0.0
-0.13854201299452937,-0.03108251465350564,0.1564894803153849,0.0
-0.1385484502969325,-0.031094584595511506,0.1564798243617802,0.0
-0.13854067188986205,-0.031182292840754133,0.15650074559459037,0.0
-0.13853718501772702,-0.031130257979662176,0.15655331689754926,0.0
-0.13856212956453914,-0.03113937749139994,0.15652810412980367,0.0
-0.13854308587826322,-0.031025383594677877,0.15654312450207764,0.0
-0.1385269926222554,-0.031053815013625027,0.1564755328268448,0.0
-0.13849319678463898,-0.031025383594677877,0.1565648503976882,0.0
-0.1384827361682339,-0.030996147512930335,0.1565661915023555,0.0
-0.1385463045294648,-0.03103450310641564,0.15649377185032032,0.0
-0.13856668932040803,-0.031063202746296256,0.15641062336094658,0.0
-0.13852726084318887,-0.031018946292274748,0.1562923379292891,0.0
-0.13854710919226518,-0.031069103606832457,0.15656806904888976,0.0
-0.13853933078519473,-0.031090293060576087,0.15662627299145138,0.0
-0.1385358439130597,-0.03107312692083441,0.15653776008340836,0.0
-0.13854201299452937,-0.03106722606029821,0.15651335197846317,0.0
-0.13853638035492663,-0.031075004467368657,0.15652381259486825,0.0
-0.1385350392502593,-0.031111214293386254,0.156577456781561,0.0
-0.1385232375291869,-0.031106386316583908,0.15672015031816366,0.0
-0.13851545912211646,-0.031159494061409717,0.156425911954154,0.0
-0.13856588465760764,-0.031145546572869606,0.15640204029107574,0.0
-0.13852967483159004,-0.031058911211360837,0.15650745111792697,0.0
-0.138544695203864,-0.031126502886593684,0.15653320032753948,0.0
-0.1385535464946683,-0.031217966224904803,0.15652917701353752,0.0
-0.13854201299452937,-0.031166736026613236,0.15661313016571166,0.0
-0.1385248468547877,-0.031001243710666145,0.1564495153962988,0.0
-0.1385594473552045,-0.031116578712055528,0.15618209912563552,0.0
-0.13860987289069568,-0.031149033445004633,0.15652729946700328,0.0
-0.13856052023893836,-0.031218770887705194,0.15660508353770775,0.0
-0.1385387943433278,-0.031155202526474298,0.1565500982463477,0.0
-0.13853852612239434,-0.031140182154200332,0.15648197012924792,0.0
-0.13856561643667417,-0.031175855538351005,0.15653776008340836,0.0
-0.13855113250626713,-0.031172368666215974,0.15652917701353752,0.0
-0.13854523164573093,-0.031156543631141616,0.1564916260828526,0.0
-0.13858707411135127,-0.031215820457437093,0.156455416256835,0.0
-0.13854523164573093,-0.031090829502443015,0.15655546266501696,0.0
-0.13853021127345697,-0.031062934525362792,0.15652515369953557,0.0
-0.13853986722706166,-0.031067494281231674,0.1564991362689896,0.0
-0.13852001887798535,-0.03106642139749782,0.15655573088595043,0.0
-0.13855461937840216,-0.031092438828043797,0.1564784832571129,0.0
-0.13855113250626713,-0.031095389258311897,0.15634008125544563,0.0
-0.13856078845987183,-0.0311219431307248,0.15662439544491713,0.0
-0.13853718501772702,-0.03116619958474631,0.15657531101409328,0.0
-0.1385640071110734,-0.031174514433683687,0.15655787665341814,0.0
-0.13853825790146088,-0.031077150234836367,0.15652005750179976,0.0
-0.13852243286638652,-0.03109190238617687,0.15644844251256496,0.0
-0.13853611213399317,-0.031168881794080946,0.1564983316061892,0.0
-0.13850312095917713,-0.031159225840476253,0.15651764351339859,0.0
-0.13852431041292076,-0.03119221701529229,0.15645005183816574,0.0
-0.13850821715691294,-0.031213942910902848,0.1565779932234279,0.0
-0.1385240421919873,-0.031157348293942008,0.1565130837575297,0.0
-0.13854818207599903,-0.031220111992372512,0.15644495564042993,0.0
-0.13851975065705188,-0.03111818803765631,0.15650369602485847,0.0
-0.13852350575012037,-0.03115091099153888,0.15640874581441233,0.0
-0.13852645618038847,-0.031158689398609326,0.15636234359292311,0.0
-0.13850741249411255,-0.031114701165521282,0.15660427887490735,0.0
-0.13852431041292076,-0.031162176270744354,0.15650101381552384,0.0
-0.13852135998265266,-0.031147692340337315,0.15651576596686434,0.0
-0.13854308587826322,-0.03112033380512402,0.15650074559459037,0.0
-0.13854308587826322,-0.031146887677536924,0.15659784157250423,0.0
-0.1385758088321458,-0.03114071859606726,0.1565235443739348,0.0
-0.13856668932040803,-0.031155470747407762,0.15647150951284283,0.0
-0.1385122404709149,-0.03115171565433927,0.15656136352555317,0.0
-0.13855971557613797,-0.031202677631697373,0.15649994093178998,0.0
-0.13855381471560177,-0.031215820457437093,0.15647445994311093,0.0
-0.13852860194785618,-0.03115305675900659,0.15649994093178998,0.0
-0.13853128415719082,-0.031089488397775696,0.1564916260828526,0.0
-0.1385712490762769,-0.03122064843423944,0.15643208103562367,0.0
-0.13853638035492663,-0.031143132584468432,0.15649564939685456,0.0
-0.13857661349494618,-0.03121126070156821,0.15642859416348864,0.0
-0.13856856686694227,-0.03120240941076391,0.1564119644656139,0.0
-0.13852082354078574,-0.031156543631141616,0.15620677545151418,0.0
-0.13856186134360568,-0.03112972153779525,0.15651040154819507,0.0
-0.13860263092549216,-0.031174246212750223,0.1567493863999112,0.0
-0.13860665423949411,-0.031187657259423407,0.1564385183380268,0.0
-0.13857017619254305,-0.031238619236781506,0.15636288003479004,0.0
-0.13856052023893836,-0.031172636887149437,0.1564886756525845,0.0
-0.13855408293653523,-0.031143937247268823,0.15648840743165104,0.0
-0.13852860194785618,-0.031173709770883296,0.15643020348908943,0.0
-0.1385514007272006,-0.03119811787582849,0.15641840176801702,0.0
-0.1386141644256311,-0.03120535984103201,0.15644093232642797,0.0
-0.13861577375123188,-0.03118792548035687,0.1564621217801716,0.0
-0.13854710919226518,-0.03116485848007899,0.156425911954154,0.0
-0.13853557569212624,-0.031202945852630837,0.15639211611653758,0.0
-0.13857339484374462,-0.03122869506224335,0.15644549208229686,0.0
-0.1385623977854726,-0.03125873580679128,0.15641813354708356,0.0
-0.13855783802960372,-0.031155738968341225,0.156366903348792,0.0
-0.13854871851786596,-0.031217429783037876,0.1562081165561815,0.0
-0.1385307477153239,-0.03123245015531184,0.15637119488372742,0.0
-0.13851358157558222,-0.031225208190108322,0.15653051811820484,0.0
-0.13853906256426127,-0.03126812353946251,0.15646239000110507,0.0
-0.1385581062505372,-0.031256053597456646,0.15641464667494853,0.0
-0.1385699079716096,-0.03128824010947229,0.15641840176801702,0.0
-0.13856078845987183,-0.03126356378359363,0.15642269330295244,0.0
-0.138544695203864,-0.031292531644407706,0.15634705499971568,0.0
-0.13855193716906752,-0.03133356944722765,0.1563505418718507,0.0
-0.13860370380922601,-0.031281534586135695,0.15658818561889953,0.0
-0.1385514007272006,-0.0312541760509224,0.15644120054736144,0.0
-0.1385594473552045,-0.031282875690803014,0.15639479832587222,0.0
-0.13854281765732976,-0.031306210912014354,0.15646936374537512,0.0
-0.13850955826158026,-0.031240765004249216,0.1564991362689896,0.0
-0.13852645618038847,-0.03125363960905547,0.15651871639713244,0.0
-0.13858224613454892,-0.031315866865619046,0.15654446560674495,0.0
-0.13863052590257238,-0.03138238565711804,0.156414914895882,0.0
-0.13859538896028864,-0.031275633725599494,0.15632130579010317,0.0
-0.138563202448273,-0.031197044992094636,0.15625478699860418,0.0
-0.13854871851786596,-0.031221721317973294,0.15650369602485847,0.0
-0.13858251435548238,-0.03126141801612592,0.15656350929302087,0.0
-0.13859887583242367,-0.03130460158641357,0.15648411589671563,0.0
-0.13855301005280138,-0.031218770887705194,0.15646909552444166,0.0
-0.1385623977854726,-0.03125551715558972,0.15639667587240647,0.0
-0.13856481177387378,-0.03124773874851927,0.15648492055951602,0.0
-0.13858224613454892,-0.031246665864785417,0.15649430829218725,0.0
-0.13859324319282093,-0.031227622178509495,0.1564540751521677,0.0
-0.13856642109947456,-0.031245592981051562,0.1563588567207881,0.0
-0.13852591973852155,-0.031276438388399885,0.15638353304666675,0.0
-0.1385860012276174,-0.03123674169024726,0.15633766726704446,0.0
-0.1385978029486898,-0.031181488177953742,0.15646480398950624,0.0
-0.1385543511574687,-0.03127965703960145,0.1566394158171911,0.0
-0.13853477102932585,-0.03123003616691067,0.15650745111792697,0.0
-0.13853128415719082,-0.031192753457159217,0.1564583666871031,0.0
-0.13849882942424172,-0.03131023422601631,0.15654392916487803,0.0
-0.13851170402904797,-0.0312541760509224,0.15651040154819507,0.0
-0.1385484502969325,-0.03130567447014743,0.15635563806958652,0.0
-0.13853155237812428,-0.031110677851519327,0.15643744545429294,0.0
-0.13855193716906752,-0.03115681185207508,0.15642778950068825,0.0
-0.13855086428533367,-0.03120106830609659,0.15641250090748082,0.0
-0.1385379896805274,-0.031231377271577987,0.15641759710521663,0.0
-0.13855005962253328,-0.031257394702123964,0.15641545133774892,0.0
-0.1385463045294648,-0.031190607689691507,0.1564133055702812,0.0
-0.13855193716906752,-0.031213674689969384,0.1563601978254554,0.0
-0.13856159312267222,-0.03130862490041553,0.1562030203584457,0.0
-0.13853691679679356,-0.03127026930693022,0.15644871073349842,0.0
-0.13853235704092468,-0.03119597210836078,0.15646909552444166,0.0
-0.13854523164573093,-0.031284485016403796,0.15641679244241624,0.0
-0.13851277691278183,-0.031176660201151396,0.1564052589422773,0.0
-0.13849641543584054,-0.031226817515709104,0.15642939882628903,0.0
-0.1384937332265059,-0.031248006969452735,0.15662251789838288,0.0
-0.13850446206384445,-0.03115681185207508,0.15659623224690344,0.0
-0.13852431041292076,-0.031250152736920445,0.15637709574426362,0.0
-0.13854576808759786,-0.031256053597456646,0.15640686826787809,0.0
-0.13854067188986205,-0.031311307109750164,0.15642859416348864,0.0
-0.13851760488958417,-0.031226817515709104,0.1564318128146902,0.0
-0.13850204807544328,-0.031181488177953742,0.15647794681524596,0.0
-0.13856588465760764,-0.03123459592277955,0.15638916568626948,0.0
-0.13855461937840216,-0.031162444491677817,0.15639506654680568,0.0
-0.1385395990061282,-0.031153593200873516,0.15630601719689574,0.0
-0.138544695203864,-0.03122064843423944,0.15656726438608937,0.0
-0.13854523164573093,-0.031250957399720836,0.15655492622315004,0.0
-0.13856481177387378,-0.03125203028345469,0.15637307243026166,0.0
-0.13856668932040803,-0.031291726981607315,0.15634812788344954,0.0
-0.13853396636652546,-0.031246665864785417,0.1564267166169544,0.0
-0.13854308587826322,-0.031215015794636702,0.15648116546644752,0.0
-0.13852270108731998,-0.031222525980773685,0.1564216204192186,0.0
-0.138552205390001,-0.03131237999348402,0.156366903348792,0.0
-0.1385505960644002,-0.0312992371677443,0.15636127070918926,0.0
-0.13850526672664484,-0.03127965703960145,0.15642403440761976,0.0
-0.13854040366892859,-0.031269196423196366,0.15678371867939456,0.0
-0.13854228121546283,-0.03119516744556039,0.15652327615300132,0.0
-0.13854791385506557,-0.03128260746986955,0.15624888613806798,0.0
-0.13852565151758808,-0.031232718376245305,0.15617888047443396,0.0
-0.13850687605224563,-0.03126383200452709,0.1564245708494867,0.0
-0.13853262526185814,-0.031241569667049607,0.1564953811759211,0.0
-0.13853906256426127,-0.031182561061687597,0.15644924717536535,0.0
-0.13851036292438065,-0.031272146853464466,0.1564688273035082,0.0
-0.13852001887798535,-0.031222525980773685,0.15643959122176065,0.0
-0.13854040366892859,-0.031194631003693463,0.15642805772162172,0.0
-0.1385463045294648,-0.031195703887427317,0.15640499072134384,0.0
-0.1385395990061282,-0.03131908551682061,0.15636717156972546,0.0
-0.13851760488958417,-0.031366024180176755,0.15644924717536535,0.0
-0.13850177985450982,-0.03143468873914346,0.15645461159403462,0.0
-0.13851653200585032,-0.031210187817834356,0.156396407651473,0.0
-0.1385366485758601,-0.03127107396973061,0.15643020348908943,0.0
-0.13854576808759786,-0.03129521385374234,0.1564288623844221,0.0
-0.13851706844771725,-0.03127509728373257,0.15632935241810708,0.0
-0.13852296930825345,-0.03131828085402022,0.15645434337310116,0.0
-0.13851089936624758,-0.03133920208683039,0.15649269896658646,0.0
-0.13850982648251373,-0.03133920208683039,0.15633927659264524,0.0
-0.13847361665649613,-0.031327400365757985,0.1563542969649192,0.0
-0.1384996340870421,-0.03139499204099083,0.15621348097485077,0.0
-0.13851277691278183,-0.03124183788798307,0.15649994093178998,0.0
-0.13855193716906752,-0.03132257238895564,0.15648223835018138,0.0
-0.13852135998265266,-0.03125498071372279,0.1564422734310953,0.0
-0.13853825790146088,-0.031324449935489884,0.15642725305882133,0.0
-0.13853638035492663,-0.03133303300536072,0.15645380693123423,0.0
-0.13853852612239434,-0.031336788098429214,0.15646265822203853,0.0
-0.1385350392502593,-0.031343493621765806,0.1566099115145101,0.0
-0.1385463045294648,-0.03137514369191452,0.1565530486766158,0.0
-0.13856588465760764,-0.03132686392389106,0.15631191805743194,0.0
-0.1385640071110734,-0.0313287414704253,0.15637629108146323,0.0
-0.1385640071110734,-0.031336788098429214,0.15645970779177043,0.0
-0.13855998379707143,-0.0312992371677443,0.15641679244241624,0.0
-0.1385581062505372,-0.03134456650549966,0.1564111598028135,0.0
-0.13858948809975244,-0.03135824577310631,0.1564650722104397,0.0
-0.13856186134360568,-0.03132257238895564,0.15648840743165104,0.0
-0.13853933078519473,-0.03134295717989888,0.15645943957083697,0.0
-0.13853262526185814,-0.03134027497056424,0.15643315391935753,0.0
-0.1385505960644002,-0.03130969778414938,0.15634705499971568,0.0
-0.1384996340870421,-0.031335446993761895,0.15621938183538697,0.0
-0.13848300438916736,-0.03127590194653296,0.1563757546395963,0.0
-0.13853235704092468,-0.03142905609954072,0.15655841309528506,0.0
-0.13855676514586987,-0.0314491726695505,0.15643127637282328,0.0
-0.1385876105532182,-0.03125498071372279,0.15646909552444166,0.0
-0.13857688171587965,-0.031425837448339156,0.15643100815188982,0.0
-0.13854067188986205,-0.03127107396973061,0.15657316524662557,0.0
-0.13850365740104406,-0.031254444271855863,0.15642215686108552,0.0
-0.1384974883195744,-0.03129843250494391,0.15634973720905032,0.0
-0.13847468954022998,-0.03130647913294782,0.15641384201214814,0.0
-0.13851921421518495,-0.031323108830822566,0.15636368469759043,0.0
-0.13852940661065657,-0.03133598343562882,0.15644012766362758,0.0
-0.13852055531985227,-0.03132176772615525,0.15645300226843384,0.0
-0.13854523164573093,-0.031411889959799044,0.1562738306848801,0.0
-0.13848354083103429,-0.03144783156488318,0.15646560865230663,0.0
-0.13849775654050786,-0.03138372676178536,0.15651952105993283,0.0
-0.1385025845173102,-0.03130835667948206,0.15649886804805613,0.0
-0.13852055531985227,-0.031385067866452676,0.15638782458160216,0.0
-0.13851036292438065,-0.03134000674963078,0.15642242508201898,0.0
-0.13852645618038847,-0.03133812920309653,0.1564621217801716,0.0
-0.13855756980867026,-0.03151139992611408,0.15639506654680568,0.0
-0.138515190901183,-0.03136870638951139,0.15633096174370786,0.0
-0.13849882942424172,-0.03128502145827072,0.1563639529185239,0.0
-0.13852591973852155,-0.03136548773830983,0.15646104889643775,0.0
-0.13852350575012037,-0.03139338271539005,0.15638916568626948,0.0
-0.13850821715691294,-0.031466070588358715,0.15644763784976456,0.0
-0.13853316170372507,-0.03150147575157592,0.15640257673294267,0.0
-0.1385299430525235,-0.03131237999348402,0.15635161475558457,0.0
-0.13850446206384445,-0.031264100225460556,0.15640177207014228,0.0
-0.13850365740104406,-0.03135207669163664,0.15643798189615987,0.0
-0.1384982929823748,-0.031323108830822566,0.1563226468947705,0.0
-0.13850204807544328,-0.031377021238448766,0.15616841985802887,0.0
-0.1384701297843611,-0.03140920775046441,0.15640928225627926,0.0
-0.1384524272027525,-0.031403306889928206,0.15649564939685456,0.0
-0.1384870277031693,-0.03142235057620413,0.15640794115161194,0.0
-0.13847737174956462,-0.0313649512964429,0.15648518878044948,0.0
-0.13850794893597948,-0.03132257238895564,0.1564495153962988,0.0
-0.13851653200585032,-0.031428787878607256,0.15627248958021278,0.0
-0.13845859628422216,-0.03127751127213374,0.15640660004694462,0.0
-0.13845108609808518,-0.03127321973719832,0.156473923501244,0.0
-0.13846449714475836,-0.031391505168855804,0.1563993580817411,0.0
-0.13846664291222607,-0.031359586877773626,0.15625505521953764,0.0
-0.13845081787715172,-0.03130862490041553,0.1563180871389016,0.0
-0.13846557002849222,-0.03137299792444681,0.15633203462744172,0.0
-0.13845001321435133,-0.03135422245910435,0.15631272272023233,0.0
-0.13847737174956462,-0.03139713780845854,0.15626176074287423,0.0
-0.13842399578380535,-0.03142395990180491,0.1563033349875611,0.0
-0.13840495209752943,-0.031398210692192396,0.15641974287268434,0.0
-0.13843740683047853,-0.03141510861100061,0.15641652422148278,0.0
-0.13849400144743937,-0.03148886936770313,0.15625961497540652,0.0
-0.13847737174956462,-0.03139767425032547,0.15640499072134384,0.0
-0.13844598990034937,-0.031319890179621,0.15651174265286238,0.0
-0.1384132669464668,-0.031370315715112174,0.15626927092901122,0.0
-0.13844384413288166,-0.03138748185485385,0.15632881597624015,0.0
-0.1384368703886116,-0.03142154591340374,0.15655492622315004,0.0
-0.13840280633006172,-0.03133008257509262,0.1563521511974515,0.0
-0.13841380338833373,-0.03131050244694977,0.1564288623844221,0.0
-0.13842667799313998,-0.03130674735388128,0.15645300226843384,0.0
-0.1384575234004883,-0.03143629806474424,0.15629609302235759,0.0
-0.1384730802146292,-0.03140920775046441,0.15635376052305228,0.0
-0.1384899781334374,-0.03145185487888514,0.15668501337587992,0.0
-0.138478176412365,-0.03146660703022564,0.15633900837171177,0.0
-0.138437675051412,-0.03135636822657206,0.15615661813695647,0.0
-0.1384360657258112,-0.03139713780845854,0.1562679298243439,0.0
-0.13844598990034937,-0.0313708521569791,0.1564621217801716,0.0
-0.13845484119115367,-0.03142449634367184,0.15641223268654736,0.0
-0.13845269542368596,-0.031517837228517205,0.15603860092623245,0.0
-0.13844008903981317,-0.03135824577310631,0.1562236733703224,0.0
-0.1384368703886116,-0.03135180847070318,0.1564642675476393,0.0
-0.13843365173741004,-0.031334642330961504,0.1562826819756844,0.0
-0.1384494767724844,-0.03141028063419826,0.1561335511366786,0.0
-0.13843123774900887,-0.03143200652980882,0.1564060636050777,0.0
-0.13839288215552356,-0.03142932432047418,0.15632747487157284,0.0
-0.1383867130740539,-0.03142261879713759,0.15641384201214814,0.0
-0.13837866644604999,-0.03138077633151726,0.15634678677878222,0.0
-0.13843257885367619,-0.03143629806474424,0.15630548075502881,0.0
-0.13844196658634741,-0.03143871205314541,0.15629904345262569,0.0
-0.13841192584179948,-0.03147170322796145,0.15632667020877244,0.0
-0.13842185001633764,-0.03141805904126871,0.15641518311681546,0.0
-0.1384355292839443,-0.031387213633920386,0.1563601978254554,0.0
-0.13842050891167032,-0.03140437977366206,0.15638567881413445,0.0
-0.13839315037645702,-0.031396601366591614,0.15627785399888205,0.0
-0.13840924363246485,-0.031427983215806865,0.15615849568349072,0.0
-0.13838537196938658,-0.031454537088219776,0.15642698483788786,0.0
-0.13842855553967423,-0.03152481097278726,0.1562456674868664,0.0
-0.1383816168763181,-0.03133705631936268,0.1563167460342343,0.0
-0.13845135431901864,-0.031383458540851894,0.15634008125544563,0.0
-0.1384258733303396,-0.03135556356377167,0.15632076934823624,0.0
-0.13840602498126328,-0.03137004749417871,0.1563505418718507,0.0
-0.13840334277192864,-0.03148404139090078,0.1563239879994378,0.0
-0.13844384413288166,-0.03145480530915324,0.15625210478926954,0.0
-0.13844813566781708,-0.03120240941076391,0.1564186699889505,0.0
-0.1384339199583435,-0.03134751693576776,0.15633605794144367,0.0
-0.1384124622836664,-0.03138077633151726,0.15634598211598183,0.0
-0.1384331152955431,-0.031318012633086756,0.15634946898811686,0.0
-0.13844411235381512,-0.03144783156488318,0.15638058261639864,0.0
-0.13840843896966445,-0.03139418737819044,0.1564784832571129,0.0
-0.1383977101323259,-0.03140062468059357,0.15630789474343,0.0
-0.13846261959822412,-0.03142610566927262,0.15621509030045155,0.0
-0.1384738848774296,-0.03136280552897519,0.15615661813695647,0.0
-0.13847442131929652,-0.031413499285399826,0.1564347632449583,0.0
-0.13845886450515563,-0.03146741169302603,0.15639453010493876,0.0
-0.13846020560982295,-0.03142825143674033,0.15647231417564322,0.0
-0.13847737174956462,-0.03142449634367184,0.15635832027892116,0.0
-0.13844196658634741,-0.031430128983274574,0.1563542969649192,0.0
-0.13846288781915758,-0.03145480530915324,0.15632827953437323,0.0
-0.13848675948223585,-0.031608227683094466,0.15631916002263546,0.0
-0.13846878867969378,-0.03142664211113955,0.15645192938469998,0.0
-0.13845269542368596,-0.0313620008661748,0.15656136352555317,0.0
-0.13845215898181903,-0.0314765312047638,0.15626444295220887,0.0
-0.1384738848774296,-0.03155002374053285,0.15623279288206016,0.0
-0.13845805984235524,-0.03144380825088122,0.15630682185969613,0.0
-0.1383875177368543,-0.03138775007578731,0.15618531777683708,0.0
-0.13841433983020066,-0.03142851965767379,0.1564583666871031,0.0
-0.13849212390090512,-0.031508985937712904,0.15637226776746127,0.0
-0.1384532318655529,-0.03145426886728631,0.1565004773736569,0.0
-0.13841809492326915,-0.03138775007578731,0.15651737529246512,0.0
-0.13840575676032982,-0.031441930704346976,0.15616251899749267,0.0
-0.1383963690276586,-0.03142315523900452,0.15625156834740261,0.0
-0.13843874793514585,-0.03142637389020608,0.15619872882351027,0.0
-0.1383888588415216,-0.031444076471814686,0.15620704367244764,0.0
-0.13835801343417328,-0.03153580803105927,0.15629609302235759,0.0
-0.1384036109928621,-0.03151595968198296,0.15631728247610122,0.0
-0.13836632828311066,-0.0313620008661748,0.15629609302235759,0.0
-0.13836793760871144,-0.03147894519316497,0.15623708441699558,0.0
-0.1383762524576488,-0.03146124261155637,0.15631916002263546,0.0
-0.1383816168763181,-0.031476262983830335,0.15630440787129496,0.0
-0.13840763430686406,-0.031493697344505474,0.1562346704285944,0.0
-0.13839878301605976,-0.0314336158554096,0.1563210375691697,0.0
-0.1383947597020578,-0.03149289268170508,0.1563025303247607,0.0
-0.1383778617832496,-0.03140357511086167,0.15630655363876267,0.0
-0.13838537196938658,-0.03144675868114932,0.1564355679077587,0.0
-0.1383682058296449,-0.03143254297167575,0.15635027365091725,0.0
-0.13837061981804608,-0.031433079413542675,0.15613837911348094,0.0
-0.1383572087713729,-0.03147143500702799,0.1563905067909368,0.0
-0.13835291723643747,-0.03142530100647223,0.15645005183816574,0.0
-0.13838188509725155,-0.03148323672810039,0.15624888613806798,0.0
-0.13839449148112434,-0.03151381391451525,0.15624083951006407,0.0
-0.1383778617832496,-0.03155619282200251,0.156444419198563,0.0
-0.13840629320219675,-0.031506840170245194,0.1563454456741149,0.0
-0.13836042742257446,-0.03137889878498301,0.15633847192984485,0.0
-0.13835613588763904,-0.03145936506502212,0.1561483032880191,0.0
-0.13841058473713216,-0.03145131843701821,0.1560021228792814,0.0
-0.13841970424886993,-0.03151327747264832,0.1563838012676002,0.0
-0.1384280190978073,-0.031482163844366536,0.15643288569842406,0.0
-0.13841809492326915,-0.03145748751848788,0.15636153893012272,0.0
-0.13838805417872121,-0.03143254297167575,0.1561904139745729,0.0
-0.13839985589979362,-0.031452927762618994,0.15622420981218932,0.0
-0.1384124622836664,-0.03150710839117866,0.15626337006847502,0.0
-0.13841138939993256,-0.03151166814704754,0.15625130012646915,0.0
-0.13839583258579166,-0.03146714347209257,0.15623145177739284,0.0
-0.138419167807003,-0.03157121319427648,0.15613301469481167,0.0
-0.1384065614231302,-0.031548414414932065,0.15623145177739284,0.0
-0.13842185001633764,-0.031440321378746194,0.15638594703506792,0.0
-0.13842667799313998,-0.031448636227683575,0.15633713082517753,0.0
-0.13843821149327892,-0.03161949296229994,0.15617646648603278,0.0
-0.13841085295806563,-0.031441126041546585,0.15622313692845546,0.0
-0.1383749113529815,-0.03140277044806128,0.15628992394088792,0.0
-0.1384095118533983,-0.031565848775607204,0.15622742846339088,0.0
-0.13840307455099518,-0.03139982001779318,0.15622152760285468,0.0
-0.13840253810912825,-0.03140089290152703,0.15613623334601323,0.0
-0.1384124622836664,-0.031460169727822514,0.15654017407180953,0.0
-0.13841299872553334,-0.031425032785538765,0.15638782458160216,0.0
-0.13842158179540417,-0.03139633314565815,0.15617539360229893,0.0
-0.13839958767886015,-0.03141376750633329,0.15621669962605234,0.0
-0.13835184435270362,-0.03143710272754463,0.15635376052305228,0.0
-0.1383888588415216,-0.031436834506611167,0.15632291511570395,0.0
-0.13841058473713216,-0.03147089856516106,0.15602653098422659,0.0
-0.13836847405057837,-0.031423691680871446,0.15617378427669815,0.0
-0.13834728459683474,-0.03153500336825888,0.15617137028829697,0.0
-0.13839529614392473,-0.03153849024039391,0.15617512538136546,0.0
-0.13840790252779753,-0.03151086348424715,0.15623440220766094,0.0
-0.13836203674817524,-0.03152990717052307,0.15625344589393686,0.0
-0.13835533122483865,-0.0316109098924291,0.15629180148742217,0.0
-0.13839583258579166,-0.03154465932186357,0.1561652012068273,0.0
-0.1383690104924453,-0.0315030850771767,0.1562089212189819,0.0
-0.13836498717844334,-0.03148404139090078,0.15633337573210904,0.0
-0.13837947110885038,-0.03155538815920212,0.15607025099638117,0.0
-0.138352649015504,-0.03141457216913368,0.15624191239379792,0.0
-0.13834808925963513,-0.031425032785538765,0.15628724173155328,0.0
-0.13832046250348837,-0.0314735807744957,0.15620382502124608,0.0
-0.1383454070503005,-0.0315030850771767,0.1561719067301639,0.0
-0.1384414301444805,-0.03150362151904363,0.15621348097485077,0.0
-0.13840843896966445,-0.03140947597139787,0.15618397667216977,0.0
-0.13839422326019088,-0.03150415796091056,0.15635832027892116,0.0
-0.13839019994618892,-0.03155324239173441,0.15632827953437323,0.0
-0.13838912706245507,-0.03148457783276771,0.15619604661417563,0.0
-0.1383741066901811,-0.03150415796091056,0.15621294453298384,0.0
-0.13836686472497758,-0.031482163844366536,0.1562443263821991,0.0
-0.13838027577165077,-0.03150737661211212,0.15619872882351027,0.0
-0.13836418251564295,-0.03153124827519039,0.15608017517091932,0.0
-0.13836471895750987,-0.03155538815920212,0.15632908419717362,0.0
-0.1384124622836664,-0.03166267653258759,0.15630735830156306,0.0
-0.13837544779484842,-0.031565848775607204,0.15636583046505814,0.0
-0.13835694055043943,-0.031551364845200165,0.15655197579288194,0.0
-0.13838510374845311,-0.03163773198577547,0.15641518311681546,0.0
-0.13833682398042965,-0.031626466706569996,0.1562384255216629,0.0
-0.13829900482881127,-0.031601522159757874,0.15625371411487032,0.0
-0.13837142448084647,-0.03158677000841737,0.15624620392873334,0.0
-0.13839288215552356,-0.03165436168365022,0.1562443263821991,0.0
-0.13838617663218697,-0.03151515501918257,0.15621455385858463,0.0
-0.13843928437701278,-0.03161734719483223,0.1560994870781287,0.0
-0.13842748265594038,-0.03156263012440564,0.15641089158188004,0.0
-0.13840870719059792,-0.03158945221775201,0.15657557923502674,0.0
-0.13839529614392473,-0.03161144633429603,0.15633015708090747,0.0
-0.13835238079457055,-0.03163102646243888,0.15609760953159446,0.0
-0.1383454070503005,-0.031632904008973124,0.15609975529906217,0.0
-0.13835801343417328,-0.03161788363669916,0.15609009934545748,0.0
-0.1383985147951263,-0.03169942280047212,0.15639453010493876,0.0
-0.1383947597020578,-0.03177050134783999,0.15624405816126563,0.0
-0.1384073660859306,-0.031777206871176585,0.15613006426454357,0.0
-0.13839288215552356,-0.031551364845200165,0.15614052488094865,0.0
-0.13838993172525546,-0.03169888635860519,0.15627785399888205,0.0
-0.13835828165510675,-0.031725440231018094,0.1563344486158429,0.0
-0.13833736042229658,-0.031656239230184464,0.156289387499021,0.0
-0.1384095118533983,-0.03165865321858564,0.15624620392873334,0.0
-0.13841729026046876,-0.03171417495181262,0.1562767811151482,0.0
-0.13839288215552356,-0.03171953937048189,0.1562590785335396,0.0
-0.1383859084112535,-0.03169325371900245,0.15624593570779988,0.0
-0.13836498717844334,-0.03166026254418642,0.15621294453298384,0.0
-0.13834943036430244,-0.03181127092972647,0.15623708441699558,0.0
-0.13835372189923786,-0.03182199976706502,0.15622689202152396,0.0
-0.13840307455099518,-0.03171417495181262,0.15617753936976664,0.0
-0.13840039234166054,-0.03159562129922167,0.15625559166140457,0.0
-0.1383993194579267,-0.031650338369648263,0.1561550088113557,0.0
-0.13838644485312043,-0.031692717277135525,0.15634893254624993,0.0
-0.13831456164295217,-0.03169539948647016,0.15626524761500926,0.0
-0.13842989664434155,-0.03179303190625094,0.15620623900964725,0.0
-0.13841970424886993,-0.03166053076511988,0.15626015141727345,0.0
-0.13839315037645702,-0.03173375507995547,0.15623923018446328,0.0
-0.13837169270177993,-0.031733486859022005,0.1563218422319701,0.0
-0.13837759356231613,-0.03170532366100832,0.1562207229400543,0.0
-0.13836069564350792,-0.031673137148992676,0.15623815730072943,0.0
-0.13836069564350792,-0.031718198265814575,0.15627061203367854,0.0
-0.1383690104924453,-0.03169674059113748,0.15627731755701513,0.0
-0.13837678889951574,-0.031700763905139435,0.1563336439530425,0.0
-0.13835613588763904,-0.03170907875407681,0.15634437279038105,0.0
-0.1383505032480363,-0.0317246355682177,0.15605040264730485,0.0
-0.13837973932978384,-0.031739387719558206,0.15605254841477256,0.0
-0.13836203674817524,-0.031772915336241166,0.15624674037060027,0.0
-0.13835533122483865,-0.03187510751189083,0.15608875824079016,0.0
-0.1383623049691087,-0.031854454500014125,0.15602653098422659,0.0
-0.1383319960036273,-0.031737241952090496,0.15614937617175295,0.0
-0.1383113429917506,-0.03160876412496139,0.15638862924440255,0.0
-0.13827996114253535,-0.031643096404444744,0.15626766160341043,0.0
-0.1383387015269639,-0.031635049776440834,0.15616359188122653,0.0
-0.13835238079457055,-0.03164792438124709,0.15638648347693485,0.0
-0.13831590274761948,-0.031600985717890946,0.15628804639435367,0.0
-0.1383016870381459,-0.03168949862593396,0.15593506764591547,0.0
-0.13828264335187,-0.03167260070712575,0.1560257263214262,0.0
-0.13824133732811658,-0.0317128338471453,0.15626310184754155,0.0
-0.1382944450729424,-0.031697008812070944,0.15624834969620105,0.0
-0.13835291723643747,-0.03166374941632145,0.15612201763653966,0.0
-0.1383496985852359,-0.03170130034700636,0.15614776684615217,0.0
-0.1383467481549678,-0.0317098834168772,0.15624110773099753,0.0
-0.1383172438522868,-0.031698618137671726,0.15624620392873334,0.0
-0.13830383280561362,-0.03165060659058173,0.1560050733095495,0.0
-0.1383674011668445,-0.03175226232436446,0.15603806448436552,0.0
-0.13833816508509697,-0.03170961519594374,0.15610941125266686,0.0
-0.13830195525907937,-0.03168815752126664,0.15613757445068055,0.0
-0.13832260827095608,-0.031659994323252956,0.15624218061473139,0.0
-0.13830731967774865,-0.031601522159757874,0.15649055319911875,0.0
-0.13832046250348837,-0.03172490378915117,0.15611960364813848,0.0
-0.13831590274761948,-0.03169674059113748,0.15598710250700742,0.0
-0.13833709220136312,-0.03157148141520994,0.15588812898255933,0.0
-0.1383378968641635,-0.0316618718697872,0.15627544001048088,0.0
-0.13829900482881127,-0.03166696806752301,0.15631755069703468,0.0
-0.1382957861776097,-0.031666431625656084,0.15622742846339088,0.0
-0.1382973955032105,-0.03165945788138603,0.15644629674509725,0.0
-0.13828961709614004,-0.03183755658120591,0.15622125938192122,0.0
-0.13830946544521636,-0.03182039044146424,0.15604369712396826,0.0
-0.13831295231735138,-0.03165275235804944,0.15616788341616195,0.0
-0.13831670741041988,-0.031748775452229434,0.15615313126482144,0.0
-0.1383164391894864,-0.031774256440908484,0.15612335874120697,0.0
-0.13830973366614982,-0.031690571509667816,0.15619390084670792,0.0
-0.13830195525907937,-0.03169325371900245,0.1562620289638077,0.0
-0.13832368115468993,-0.03178847215038206,0.1561622507765592,0.0
-0.13828291157280345,-0.0317637958245034,0.1561386473344144,0.0
-0.1382788882588015,-0.03179866454585368,0.156012315274753,0.0
-0.13825340727012245,-0.03181100270879301,0.1563897021281364,0.0
-0.1383239493756234,-0.03168145199793005,0.1563572473951873,0.0
-0.13831375698015178,-0.031762722940769546,0.15610055996186256,0.0
-0.13829203108454122,-0.03184023879054055,0.15618344023030284,0.0
-0.13825635770039055,-0.031765673371037646,0.1562397666263302,0.0
-0.13829793194507742,-0.03167608757926078,0.15617324783483122,0.0
-0.13828934887520658,-0.0317696966850396,0.15638648347693485,0.0
-0.13831590274761948,-0.031820122220530773,0.15614106132281558,0.0
-0.1382796929216019,-0.03178123018517854,0.15620194747471183,0.0
-0.13826655009586217,-0.03178176662704547,0.15625773742887228,0.0
-0.1382877395496058,-0.03183889768587323,0.15633015708090747,0.0
-0.13828264335187,-0.031820122220530773,0.15626739338247697,0.0
-0.13825313904918898,-0.03179142258065016,0.1561010964037295,0.0
-0.13826440432839446,-0.03182334087173234,0.1559836156348724,0.0
-0.13825903990972518,-0.031798396324920215,0.15616707875336155,0.0
-0.13827540138666647,-0.03179946920865407,0.15620194747471183,0.0
-0.13831402520108524,-0.031803492522656025,0.15616171433469228,0.0
-0.13830651501494826,-0.03179142258065016,0.15622340514938893,0.0
-0.13828720310773887,-0.031856600267481834,0.15613516046227938,0.0
-0.13824831107238664,-0.03184238455800826,0.15620650723058072,0.0
-0.13829015353800697,-0.031752530545297926,0.15621133520738306,0.0
-0.13830356458468016,-0.031615469648297985,0.15604369712396826,0.0
-0.13831080654988367,-0.031678769788595414,0.15607346964758273,0.0
-0.13824106910718312,-0.031727049556618876,0.15625585988233803,0.0
-0.13821880676970563,-0.03176245471983608,0.1561719067301639,0.0
-0.13825126150265474,-0.031705860102875245,0.15614186598561597,0.0
-0.13829846838694435,-0.03171471139367955,0.1561061926014653,0.0
-0.13828237513093652,-0.03175574919649949,0.1561238951830739,0.0
-0.13827566960759993,-0.031769160243172674,0.15609895063626178,0.0
-0.13826896408426334,-0.03162914891590463,0.15607749296158469,0.0
-0.13829927304974474,-0.0317128338471453,0.15613247825294474,0.0
-0.13832046250348837,-0.03176138183610223,0.1562022156956453,0.0
-0.13828827599147273,-0.03169620414927055,0.15606837344984692,0.0
-0.13826359966559407,-0.03171068807967759,0.15620945766084882,0.0
-0.1382523343863886,-0.0317549445336991,0.15605844927530876,0.0
-0.13827915647973496,-0.031752530545297926,0.15599058937914245,0.0
-0.13828425267747077,-0.03175118944063061,0.15608688069425591,0.0
-0.13828720310773887,-0.03176245471983608,0.15606274081024418,0.0
-0.13827915647973496,-0.031837020139338985,0.15600560975141642,0.0
-0.13826762297959602,-0.031799737429587534,0.15600024533274714,0.0
-0.13828130224720267,-0.03183165572066971,0.15602840853076083,0.0
-0.13822041609530641,-0.03170532366100832,0.15618102624190167,0.0
-0.13824696996771932,-0.031789008592248987,0.15617217495109736,0.0
-0.13830785611961557,-0.031705055440074854,0.15599970889088022,0.0
-0.1382670865377291,-0.03166562696285569,0.15610055996186256,0.0
-0.13825635770039055,-0.03171497961461301,0.1561053879386649,0.0
-0.1382552848166567,-0.031735632626489714,0.15608527136865513,0.0
-0.13825984457252558,-0.03164792438124709,0.15601553392595457,0.0
-0.13826225856092675,-0.03173831483582435,0.15608205271745357,0.0
-0.13826601365399524,-0.031807784057591444,0.15617807581163357,0.0
-0.1382810340262692,-0.03188556812829591,0.15608285738025396,0.0
-0.13822819450237686,-0.03168225666073044,0.15602894497262776,0.0
-0.13825903990972518,-0.03173107287062083,0.15594901513445558,0.0
-0.13826494077026139,-0.031794641231851724,0.15635188297651803,0.0
-0.13825474837478977,-0.031779352638644294,0.15636207537198965,0.0
-0.1382515297235882,-0.03190380715177144,0.15595598887872564,0.0
-0.138256625921324,-0.0319166817565777,0.15601633858875497,0.0
-0.13821800210690524,-0.031687621079399715,0.1561630554393596,0.0
-0.13822685339770954,-0.03178552172011396,0.15611075235733418,0.0
-0.13822470763024183,-0.031843457441742114,0.15604181957743402,0.0
-0.13822765806050993,-0.03176165005703569,0.15609251333385865,0.0
-0.13825501659572323,-0.03179571411558558,0.15624191239379792,0.0
-0.13822819450237686,-0.03184613965107675,0.15614293886934982,0.0
-0.13823114493264496,-0.031829509953202,0.1560050733095495,0.0
-0.13818179228088764,-0.031915608872843844,0.15603565049596435,0.0
-0.13819815375782893,-0.03187296174442312,0.15588035057548888,0.0
-0.13826762297959602,-0.031794641231851724,0.1561230905202735,0.0
-0.13824321487465083,-0.0318657197792196,0.15614669396241831,0.0
-0.13822604873490915,-0.0319373347684544,0.1561550088113557,0.0
-0.1382448242002516,-0.03190648936110608,0.15611477567133614,0.0
-0.1382241711883749,-0.031772110673440775,0.15612630917147508,0.0
-0.13820673682769977,-0.03184748075574407,0.15609760953159446,0.0
-0.13821290590916943,-0.03185069940694563,0.1560257263214262,0.0
-0.13821424701383675,-0.03199983024595145,0.15606569124051228,0.0
-0.13817642786221837,-0.03194162630338982,0.15614964439268642,0.0
-0.13812841631512837,-0.031749580115029825,0.15618799998617172,0.0
-0.13817857362968608,-0.031903270709904515,0.15606864167078038,0.0
-0.1381895706879581,-0.03188127659336049,0.15627785399888205,0.0
-0.13820324995556474,-0.03185928247681647,0.1560396738099663,0.0
-0.13819118001355887,-0.031918559303111944,0.1559688634835319,0.0
-0.13819895842062932,-0.031871888860689264,0.156137842671614,0.0
-0.13819118001355887,-0.031890932546965185,0.15625559166140457,0.0
-0.1381858155948896,-0.03186786554668731,0.1562089212189819,0.0
-0.13820754149050016,-0.03192124151244658,0.15607481075225005,0.0
-0.13820834615330055,-0.032014314176358485,0.1559873707279409,0.0
-0.13813512183846496,-0.03195020937326066,0.1561550088113557,0.0
-0.13820244529276435,-0.03197864079220781,0.1560892946826571,0.0
-0.13818849780422424,-0.031979177234074736,0.15607132388011502,0.0
-0.13815684773407552,-0.03194886826859334,0.15608017517091932,0.0
-0.13817347743195027,-0.03191399954724306,0.15607856584531854,0.0
-0.1382094190370344,-0.03195906066406496,0.1560619361474438,0.0
-0.13819708087409507,-0.03203282142076748,0.15606676412424614,0.0
-0.13820459106023206,-0.031989906071413284,0.1560839302639878,0.0
-0.13819788553689547,-0.031871888860689264,0.15607346964758273,0.0
-0.13819922664156278,-0.03188422702362859,0.15605657172877452,0.0
-0.13817535497848452,-0.031969521280470044,0.15612577272960815,0.0
-0.1381517515363397,-0.03191480421004345,0.15607051921731463,0.0
-0.13816006638527709,-0.03192043684964619,0.15604181957743402,0.0
-0.13816650368768021,-0.0318863727910963,0.15616841985802887,0.0
-0.138179110071553,-0.03189361475629982,0.15597127747193307,0.0
-0.13819573976942776,-0.03200573110648765,0.15605469418224027,0.0
-0.1381517515363397,-0.03191507243097692,0.15620409324217954,0.0
-0.13811688281498943,-0.031917218198444626,0.1561002917409291,0.0
-0.13816543080394636,-0.0319402851987225,0.15601365637942033,0.0
-0.13816677190861368,-0.03194833182672641,0.15601553392595457,0.0
-0.13812734343139452,-0.03193357967538591,0.15612952782267664,0.0
-0.13812144257085832,-0.0318834223608282,0.1561571545788234,0.0
-0.1381230518964591,-0.03191990040777926,0.15596054863459452,0.0
-0.13813002564072915,-0.03203067565329977,0.15592567991324424,0.0
-0.13816087104807748,-0.03199929380408452,0.15622474625405625,0.0
-0.1381761596412849,-0.031949941152327195,0.1560935862175925,0.0
-0.13814558245487005,-0.03200814509488882,0.15600856018168452,0.0
-0.13815577485034167,-0.03196362041993384,0.15614052488094865,0.0
-0.1381946668856939,-0.03196576618740155,0.15613837911348094,0.0
-0.13815148331540625,-0.031901124942436805,0.15611182524106804,0.0
-0.13814129091993463,-0.03193626188472055,0.15609546376412675,0.0
-0.13814397312926927,-0.03204837823490837,0.15595008801818944,0.0
-0.13811393238472133,-0.03194967293139373,0.15609492732225982,0.0
-0.13809676624497966,-0.03190219782617066,0.15634410456944758,0.0
-0.13810266710551586,-0.031970325943270435,0.1561069972642657,0.0
-0.13810883618698552,-0.032033894304501334,0.15600668263515027,0.0
-0.13810642219858435,-0.03204462314183988,0.1560257263214262,0.0
-0.13814343668740234,-0.031960133547798815,0.15614186598561597,0.0
-0.1381281480941949,-0.03193492078005323,0.1561622507765592,0.0
-0.1381133959428544,-0.03197220348980468,0.1560560352869076,0.0
-0.13813619472219882,-0.03198185944340937,0.1559887118326082,0.0
-0.13814424135020273,-0.032042745595305636,0.15605067086823832,0.0
-0.13816569902487982,-0.0320459642465072,0.15608151627558664,0.0
-0.13811554171032212,-0.03189441941910021,0.1560404784727667,0.0
-0.1380801365471049,-0.031937602989387866,0.15597932409993698,0.0
-0.13807048059350022,-0.03199232005981446,0.1561874635443048,0.0
-0.13814102269900116,-0.031984273431810546,0.15600292754208178,0.0
-0.138120101466191,-0.0320038535599534,0.15592702101791156,0.0
-0.13810856796605206,-0.03197220348980468,0.15597208213473346,0.0
-0.13809408403564502,-0.03192204617524697,0.1561874635443048,0.0
-0.1381045446520501,-0.03184694431387714,0.15608285738025396,0.0
-0.13816167571087787,-0.03189978383776949,0.15601553392595457,0.0
-0.13810481287298357,-0.0319078304657734,0.15600453686768256,0.0
-0.1381133959428544,-0.03188744567483016,0.15597932409993698,0.0
-0.13809542514031234,-0.03189495586096714,0.15598334741393893,0.0
-0.13811232305912055,-0.03193223857071859,0.1560396738099663,0.0
-0.13811366416378787,-0.0319314339079182,0.1560345776122305,0.0
-0.13810105777991508,-0.03187376640722351,0.1559844202976728,0.0
-0.13811232305912055,-0.03196147465246613,0.1559192426108411,0.0
-0.13811554171032212,-0.03189656518656792,0.1561150438922696,0.0
-0.13811312772192094,-0.03188529990736245,0.15612282229934005,0.0
-0.1381222472336587,-0.031978372571274345,0.15598468851860625,0.0
-0.13810642219858435,-0.03203523540916865,0.15601767969342228,0.0
-0.13812197901272524,-0.03193062924511781,0.1560064144142168,0.0
-0.13810883618698552,-0.03184962652321178,0.1560101695072853,0.0
-0.13806189752362938,-0.03183165572066971,0.1558736450521523,0.0
-0.13808067298897184,-0.0318893232213644,0.1560101695072853,0.0
-0.13812868453606184,-0.031990710734213675,0.1562161631841854,0.0
-0.13810856796605206,-0.03198588275741133,0.1560560352869076,0.0
-0.13802729702321256,-0.032018605711293904,0.15606783700798,0.0
-0.13808576918670765,-0.03202182436249547,0.156156349916023,0.0
-0.1381415591408681,-0.03186357401175189,0.1560619361474438,0.0
-0.13812036968712446,-0.031901124942436805,0.1559975631234125,0.0
-0.13807772255870374,-0.031921509733380045,0.15604745221703675,0.0
-0.13809998489618122,-0.03195745133846418,0.1560337729494301,0.0
-0.13812922097792876,-0.03195745133846418,0.15600292754208178,0.0
-0.13813887693153346,-0.031944844954591385,0.15602974963542815,0.0
-0.13809730268684658,-0.03184399388360904,0.15603699160063167,0.0
-0.13807986832617145,-0.03194833182672641,0.15596028041366106,0.0
-0.13809703446591312,-0.031906221140172615,0.1560211665655573,0.0
-0.13809247471004424,-0.03191614531471077,0.15601285171661994,0.0
-0.1380927429309777,-0.032040063385971,0.15589966248269826,0.0
-0.13813029386166262,-0.03207949186319016,0.15591441463403877,0.0
-0.13809381581471156,-0.031892273651632504,0.15627248958021278,0.0
-0.13804607248855502,-0.03186089180241725,0.15620543434684686,0.0
-0.13810400821018318,-0.031952086919794905,0.15600748729795066,0.0
-0.13814477779206966,-0.031946990722059095,0.1560160703678215,0.0
-0.13812627054766066,-0.03189871095403563,0.15600453686768256,0.0
-0.13812144257085832,-0.03189710162843485,0.15606864167078038,0.0
-0.13812466122205988,-0.0319979526994172,0.15604825687983714,0.0
-0.13818259694368804,-0.03199687981568334,0.15606515479864536,0.0
-0.13814209558273502,-0.03189924739590256,0.15606810522891346,0.0
-0.1380447313838877,-0.032011363746090385,0.15594418715765324,0.0
-0.13813807226873306,-0.03190273426803759,0.15603323650756318,0.0
-0.1381407544780677,-0.031925801268315464,0.15593587230871586,0.0
-0.13809462047751195,-0.03183353326720396,0.15599005293727553,0.0
-0.13811902858245714,-0.03204757357210798,0.15606864167078038,0.0
-0.1380669937213652,-0.03194162630338982,0.15608312560118742,0.0
-0.13808415986110686,-0.03198454165274401,0.1560042686467491,0.0
-0.13818232872275457,-0.03198400521087708,0.1559739596812677,0.0
-0.13812358833832603,-0.03194591783832524,0.15586077044734603,0.0
-0.13812546588486027,-0.03190595291923915,0.15613247825294474,0.0
-0.13814853288513815,-0.031912122000708816,0.15619068219550636,0.0
-0.13815577485034167,-0.031979177234074736,0.15607642007785083,0.0
-0.13812278367552563,-0.03198883318767943,0.15614991261361988,0.0
-0.13812117434992485,-0.031929556361383955,0.15621830895165312,0.0
-0.13811098195445323,-0.03188825033763055,0.15605657172877452,0.0
-0.13810347176831625,-0.03199634337381641,0.15594096850645167,0.0
-0.1380994484543143,-0.031896028744700995,0.156030822519162,0.0
-0.1381289527569953,-0.03194350384992407,0.15601177883288608,0.0
-0.13812546588486027,-0.031923655500847754,0.15607132388011502,0.0
-0.13812197901272524,-0.03192794703578317,0.1560522801938391,0.0
-0.13812278367552563,-0.031817976453063064,0.1560581810543753,0.0
-0.138101594221782,-0.03185901425588301,0.1560855395895886,0.0
-0.13811554171032212,-0.03191453598910999,0.15607534719411698,0.0
-0.13811607815218904,-0.031852308732546415,0.15607051921731463,0.0
-0.1381576523968759,-0.03191802286124502,0.15598549318140664,0.0
-0.13814826466420468,-0.03194216274525675,0.15595652532059257,0.0
-0.13812492944299334,-0.03194752716392602,0.1558551378077433,0.0
-0.13812841631512837,-0.031968984838603116,0.1561520583810876,0.0
-0.13811473704752172,-0.03196576618740155,0.1562169678469858,0.0
-0.13811554171032212,-0.03199527049008256,0.1560825891593205,0.0
-0.13811232305912055,-0.03207493210732128,0.15607051921731463,0.0
-0.1380964980240462,-0.03198373698994362,0.15608419848492128,0.0
-0.13811312772192094,-0.03194082164058943,0.156078834066252,0.0
-0.13817455031568412,-0.03193813943125479,0.1560839302639878,0.0
-0.13811017729165284,-0.03183353326720396,0.15607937050811893,0.0
-0.1380860374076411,-0.031960938210599206,0.15602814030982737,0.0
-0.13808147765177223,-0.031842116337074795,0.1562266238005905,0.0
-0.13811285950098748,-0.03192901991951703,0.1561491079508195,0.0
-0.13811741925685636,-0.031930897466051274,0.15595679354152603,0.0
-0.13807664967496988,-0.031984273431810546,0.15596859526259843,0.0
-0.13813243962913033,-0.03201833749036044,0.15615903212535764,0.0
-0.13812466122205988,-0.03185847781401608,0.1561040468339976,0.0
-0.13804580426762156,-0.03182870529040161,0.1560855395895886,0.0
-0.13809327937284463,-0.03186357401175189,0.15615903212535764,0.0
-0.13812063790805792,-0.03189254187256597,0.1562885828362206,0.0
-0.13808630562857457,-0.031891737209765576,0.15607346964758273,0.0
-0.13809408403564502,-0.03194296740805714,0.1560589857171757,0.0
-0.1380986437915139,-0.031968984838603116,0.15611397100853575,0.0
-0.13808871961697575,-0.031877521500292,0.1561356969041463,0.0
-0.13806753016323212,-0.03182548663920005,0.15610458327586452,0.0
-0.13811178661725362,-0.031912122000708816,0.1560640819149115,0.0
-0.13809837557058044,-0.03190166138430373,0.15600158643741446,0.0
-0.13808362341923994,-0.031853649837213734,0.15616117789282535,0.0
-0.13807557679123603,-0.03192928814045049,0.15616922452082926,0.0
-0.13807772255870374,-0.03188851855856401,0.15609573198506022,0.0
-0.13809435225657848,-0.03194082164058943,0.15608795357798977,0.0
-0.1380712852563006,-0.03191185377977535,0.15617137028829697,0.0
-0.1380860374076411,-0.0319373347684544,0.1561483032880191,0.0
-0.13810266710551586,-0.0319912471760806,0.1561091430317334,0.0
-0.13809462047751195,-0.03194216274525675,0.15608607603145552,0.0
-0.13805706954682703,-0.03204220915343871,0.15614642574148485,0.0
-0.13807906366337105,-0.03198025011780859,0.15617914869536742,0.0
-0.13810266710551586,-0.03189361475629982,0.15603296828662971,0.0
-0.13808335519830647,-0.03195959710593189,0.15624244883566485,0.0
-0.1381037399892497,-0.03192901991951703,0.1562510319055357,0.0
-0.13809140182631038,-0.03193277501258552,0.15615393592762183,0.0
-0.13809462047751195,-0.03195155047792798,0.156156349916023,0.0
-0.138109104407919,-0.031910512675108034,0.1561187989853381,0.0
-0.1381209061289914,-0.0320097544204896,0.1560780294034516,0.0
-0.13807638145403642,-0.031919363965912335,0.15610270572933027,0.0
-0.13804043984895228,-0.0318354108137382,0.15623627975419518,0.0
-0.13809381581471156,-0.031902466047104124,0.1561711020673635,0.0
-0.13810508109391703,-0.03195235514072837,0.15611450745040267,0.0
-0.1380927429309777,-0.031891737209765576,0.15611906720627156,0.0
-0.13809596158217927,-0.03185633204654837,0.15613328291574513,0.0
-0.1380897925007096,-0.031843457441742114,0.1560034639839487,0.0
-0.1381112501753867,-0.03184372566267558,0.15599273514661016,0.0
-0.13810347176831625,-0.03184587143014329,0.15627865866168245,0.0
-0.1380522415700247,-0.03183085105786932,0.15613837911348094,0.0
-0.13808040476803837,-0.0318598189186834,0.1561217494156062,0.0
-0.13811527348938865,-0.031988564966745965,0.15630145744102686,0.0
-0.13809998489618122,-0.031944040291790994,0.15625290945206993,0.0
-0.13811822391965675,-0.03186786554668731,0.15613462402041245,0.0
-0.13814263202460195,-0.03194350384992407,0.15611665321787038,0.0
-0.13812144257085832,-0.03192392372178122,0.15611611677600346,0.0
-0.13808362341923994,-0.03185901425588301,0.15613918377628133,0.0
-0.13811259128005401,-0.032009217978622675,0.15610860658986647,0.0
-0.13813217140819686,-0.032042745595305636,0.15611236168293496,0.0
-0.13810266710551586,-0.031748775452229434,0.15614374353215021,0.0
-0.13808630562857457,-0.031755480975566026,0.1561571545788234,0.0
-0.13808362341923994,-0.03184560320920982,0.15616171433469228,0.0
-0.1380860374076411,-0.03189254187256597,0.1560780294034516,0.0
-0.13809542514031234,-0.03188395880269513,0.1561010964037295,0.0
-0.13809891201244737,-0.031846407872010214,0.15606354547304457,0.0
-0.1381171510359229,-0.03194833182672641,0.15593748163431664,0.0
-0.13807316280283485,-0.03187886260495932,0.1561297960436101,0.0
-0.13812332011739256,-0.031927410593916246,0.156359393162655,0.0
-0.13812063790805792,-0.031895224081900604,0.15622099116098775,0.0
-0.13811071373351977,-0.03193813943125479,0.1560914404501248,0.0
-0.13810776330325167,-0.03195101403606105,0.15622769668432435,0.0
-0.1380551920002928,-0.031893882977233286,0.15617941691630088,0.0
-0.13807664967496988,-0.031885836349229375,0.156145352857751,0.0
-0.13813539005939843,-0.031903270709904515,0.15618853642803865,0.0
-0.13810803152418513,-0.031979713675941664,0.1561327464738782,0.0
-0.13807906366337105,-0.03190648936110608,0.1561520583810876,0.0
-0.13810320354738279,-0.03187430284909044,0.15621830895165312,0.0
-0.13810186244271547,-0.03190514825643876,0.15615366770668837,0.0
-0.1381179556987233,-0.03198025011780859,0.15623654797512865,0.0
-0.13813431717566457,-0.032026652339297815,0.156145352857751,0.0
-0.13810588575671742,-0.03192419194271468,0.15616841985802887,0.0
-0.13805197334909122,-0.03191587709377731,0.15619819238164334,0.0
-0.1380337343256157,-0.03193787121032133,0.15617727114883317,0.0
-0.13807664967496988,-0.031971130606070826,0.15616627409056116,0.0
-0.13808067298897184,-0.031842116337074795,0.15617834403256703,0.0
-0.13809113360537692,-0.03181609890652882,0.1561512537182872,0.0
-0.13811393238472133,-0.03189924739590256,0.15624969080086837,0.0
-0.13809247471004424,-0.03188556812829591,0.15630199388289379,0.0
-0.13809676624497966,-0.03193518900098669,0.15612738205520893,0.0
-0.13806806660509904,-0.03189844273310217,0.15614508463681753,0.0
-0.13809462047751195,-0.03187913082589278,0.15605844927530876,0.0
-0.13807986832617145,-0.03188985966323133,0.1562759764523478,0.0
-0.13808067298897184,-0.031863842232685353,0.1561711020673635,0.0
-0.13810856796605206,-0.031914267768176525,0.1561711020673635,0.0
-0.13807691789590334,-0.0318804719305601,0.15622179582378815,0.0
-0.13809676624497966,-0.031915608872843844,0.1562207229400543,0.0
-0.13811661459405597,-0.03191480421004345,0.15609009934545748,0.0
-0.13809676624497966,-0.03190943979137418,0.15607829762438508,0.0
-0.13813539005939843,-0.03191480421004345,0.15632613376690552,0.0
-0.13810990907071938,-0.03195020937326066,0.15616627409056116,0.0
-0.13808576918670765,-0.03197595858287317,0.15616707875336155,0.0
-0.1381053493148505,-0.03192821525671664,0.1561807580209682,0.0
-0.13811151839632016,-0.03187832616309239,0.15617458893949854,0.0
-0.13814477779206966,-0.0319676437339358,0.15615983678815804,0.0
-0.13811366416378787,-0.0317637958245034,0.1561365015669467,0.0
-0.1381061539776509,-0.03192285083804736,0.15607320142664927,0.0
-0.13809301115191117,-0.03194430851272446,0.15632747487157284,0.0
-0.13810642219858435,-0.031999025583151056,0.15624110773099753,0.0
-0.13812868453606184,-0.03206688547931737,0.15614508463681753,0.0
-0.1381268069895276,-0.03205991173504731,0.156126845613342,0.0
-0.13804875469788966,-0.03175011655689675,0.1562952883595572,0.0
-0.13806136108176245,-0.03189710162843485,0.15623037889365898,0.0
-0.1380632386282967,-0.03191990040777926,0.15616841985802887,0.0
-0.13809006072164307,-0.03193813943125479,0.15622152760285468,0.0
-0.13808925605884267,-0.031913463105376134,0.15602545810049273,0.0
-0.13812171079179178,-0.03191534065191038,0.15604906154263753,0.0
-0.13808925605884267,-0.03194833182672641,0.15641732888428317,0.0
-0.13807691789590334,-0.031970325943270435,0.15630226210382725,0.0
-0.13810803152418513,-0.031883690581761666,0.15621267631205038,0.0
-0.13806860304696597,-0.03189039610509826,0.15622340514938893,0.0
-0.13812251545459217,-0.0319402851987225,0.1562132127539173,0.0
-0.1381702587807487,-0.031944040291790994,0.15614052488094865,0.0
-0.1381807193971538,-0.0320489146767753,0.15626041963820692,0.0
-0.13811661459405597,-0.03199097895514714,0.15630950406903077,0.0
-0.13806860304696597,-0.031891737209765576,0.15615688635788993,0.0
-0.1380779907796372,-0.031920168628712726,0.1560906357873244,0.0
-0.1380994484543143,-0.03201458239729195,0.15602545810049273,0.0
-0.13806565261669787,-0.03196630262926848,0.15632452444130474,0.0
-0.13809006072164307,-0.03195557379192993,0.15625156834740261,0.0
-0.1381053493148505,-0.03192043684964619,0.15628509596408557,0.0
-0.13809113360537692,-0.031934652559119765,0.15623815730072943,0.0
-0.138101594221782,-0.03197676324567356,0.1561799533581678,0.0
-0.13806055641896206,-0.03195101403606105,0.15626015141727345,0.0
-0.13808630562857457,-0.031988564966745965,0.15622420981218932,0.0
-0.1380817458727057,-0.031972471710738144,0.15617432071856507,0.0
-0.13807933188430452,-0.03204971933957569,0.15614052488094865,0.0
-0.13808550096577418,-0.03203845406037022,0.15624083951006407,0.0
-0.13803427076748262,-0.03197166704793775,0.15619068219550636,0.0
-0.13801764106960787,-0.03199687981568334,0.1561711020673635,0.0
-0.13802166438360983,-0.03186303756988496,0.15621187164925,0.0
-0.1380211279417429,-0.031901124942436805,0.15628214553381747,0.0
-0.13802354193014407,-0.03197139882700429,0.1561335511366786,0.0
-0.1379583642433124,-0.031964425082734234,0.15611155702013457,0.0
-0.13798840498786033,-0.03200278067621955,0.1564562209196354,0.0
-0.1380640432910971,-0.03200063490875184,0.15643744545429294,0.0
-0.13804043984895228,-0.03202611589743089,0.1561668105324281,0.0
-0.13801871395334173,-0.03205669308384575,0.15616466476496038,0.0
-0.13801549530214016,-0.032040599827837926,0.15623574331232826,0.0
-0.13802810168601296,-0.032040063385971,0.15620248391657876,0.0
-0.13802649236041217,-0.03187001131415502,0.1562582738707392,0.0
-0.13804875469788966,-0.03192124151244658,0.15623332932392708,0.0
-0.13806806660509904,-0.0319402851987225,0.15631138161556501,0.0
-0.13805116868629083,-0.031930897466051274,0.15615527703228915,0.0
-0.13804634070948849,-0.031989906071413284,0.15621884539352004,0.0
-0.1380278334650795,-0.031976226803806636,0.15620677545151418,0.0
-0.1380181775114748,-0.03199232005981446,0.15628080442915016,0.0
-0.13803453898841608,-0.03203818583943675,0.15626658871967658,0.0
-0.13804795003508927,-0.03210336352626843,0.15619497373044178,0.0
-0.1380455360466881,-0.03208297873532519,0.1562641747312754,0.0
-0.13803722119775072,-0.03195745133846418,0.15605871749624223,0.0
-0.13803427076748262,-0.03201458239729195,0.15628509596408557,0.0
-0.13795514559211083,-0.032034698967301725,0.15638701991880177,0.0
-0.13803748941868418,-0.0321116783752058,0.15630226210382725,0.0
-0.13807691789590334,-0.03198507809461094,0.1562081165561815,0.0
-0.13804339027922038,-0.031968984838603116,0.1562022156956453,0.0
-0.1381112501753867,-0.0320459642465072,0.15623574331232826,0.0
-0.13807638145403642,-0.031979177234074736,0.15637629108146323,0.0
-0.1380476818141558,-0.03194162630338982,0.15636502580225775,0.0
-0.13805170512815776,-0.03202128792062854,0.15621965005632044,0.0
-0.13807477212843564,-0.03206420326998273,0.15619202330017368,0.0
-0.13803990340708536,-0.03201324129262463,0.1562805362082167,0.0
-0.13804419494202078,-0.03201458239729195,0.1563698537790601,0.0
-0.13802756524414603,-0.031985614536477865,0.15629797056889183,0.0
-0.138035075430283,-0.032013509513558094,0.15610860658986647,0.0
-0.13805090046535737,-0.03200653576928804,0.15605791283344184,0.0
-0.13806055641896206,-0.0319705941642039,0.15628429130128518,0.0
-0.1380114719881382,-0.03199339294354831,0.15628509596408557,0.0
-0.1380173728486744,-0.03207224989798664,0.15622608735872356,0.0
-0.13804285383735346,-0.03196040176873228,0.15623896196352982,0.0
-0.13807638145403642,-0.0320097544204896,0.15622555091685664,0.0
-0.13805385089562547,-0.03200278067621955,0.1562368161960621,0.0
-0.13807986832617145,-0.032022360804362396,0.15622099116098775,0.0
-0.13805841065149435,-0.032001171350618765,0.15619819238164334,0.0
-0.13806753016323212,-0.0320459642465072,0.15613462402041245,0.0
-0.13807986832617145,-0.03209638978199837,0.15649699050152188,0.0
-0.13802541947667832,-0.03195906066406496,0.1562456674868664,0.0
-0.13800530290666854,-0.03196362041993384,0.156185854218704,0.0
-0.13796667909224977,-0.03194752716392602,0.15624244883566485,0.0
-0.13798947787159418,-0.031962279315266524,0.15617002918362966,0.0
-0.1380337343256157,-0.03213581825921753,0.1561415977646825,0.0
-0.1380093262206705,-0.032041940932505245,0.15624003484726368,0.0
-0.13800154781360005,-0.03198159122247591,0.15626363828940848,0.0
-0.13802005505800904,-0.031975422141006245,0.15613221003201128,0.0
-0.1380291745697468,-0.03204676890930759,0.15613328291574513,0.0
-0.1379790172551891,-0.03205615664197882,0.15637709574426362,0.0
-0.1380144224184063,-0.03207359100265396,0.15613006426454357,0.0
-0.13801174020907167,-0.032123480096278204,0.15614723040428524,0.0
-0.1380181775114748,-0.032195095085513006,0.1562014110328449,0.0
-0.13801039910440435,-0.03204864645584184,0.15617324783483122,0.0
-0.13799564695306385,-0.032082710514391724,0.1562022156956453,0.0
-0.13798813676692687,-0.03196871661766965,0.15625720098700535,0.0
-0.13797713970865486,-0.03201914215316083,0.15605925393810915,0.0
-0.13802354193014407,-0.032102558863468036,0.1561061926014653,0.0
-0.13803534365121647,-0.032142523782554125,0.15637924151173133,0.0
-0.13804795003508927,-0.03219536330644647,0.15625290945206993,0.0
-0.13804231739548653,-0.032119993224143176,0.15623198821925977,0.0
-0.13801495886027323,-0.03192097329151312,0.15620758011431457,0.0
-0.13803936696521843,-0.03209826732853262,0.1561289913808097,0.0
-0.1379908189762615,-0.03204864645584184,0.15614347531121675,0.0
-0.13804741359322234,-0.03207359100265396,0.15613140536921088,0.0
-0.1380779907796372,-0.032138232247618706,0.15626471117314233,0.0
-0.1380299792325472,-0.03209907199133301,0.15631862358076853,0.0
-0.1380026206973339,-0.032108191503070774,0.1561941690676414,0.0
-0.13801549530214016,-0.032117847456675466,0.15647231417564322,0.0
-0.13808523274484072,-0.032151375073358426,0.15626927092901122,0.0
-0.1380846963029738,-0.03218812134124295,0.1561504490554868,0.0
-0.13807316280283485,-0.03215834881762848,0.156281877312884,0.0
-0.13807262636096793,-0.03215808059669502,0.15618612243963748,0.0
-0.1380396351861519,-0.03210121775880072,0.1561866588815044,0.0
-0.13806162930269592,-0.03216773655029971,0.15614776684615217,0.0
-0.13804714537228888,-0.032141182677886806,0.15624030306819714,0.0
-0.13806297040736323,-0.03226992872594937,0.15619390084670792,0.0
-0.13806431151203055,-0.03230157879609809,0.15619202330017368,0.0
-0.1380838916401734,-0.03202101969969508,0.1562102623236492,0.0
-0.1380640432910971,-0.032044891362773345,0.15620758011431457,0.0
-0.1380337343256157,-0.03211731101480854,0.15615903212535764,0.0
-0.13807557679123603,-0.03211221481707273,0.15615366770668837,0.0
-0.13806860304696597,-0.0320312120951667,0.15621830895165312,0.0
-0.1380468771513554,-0.03208324695625865,0.15611102057826765,0.0
-0.13803158855814798,-0.03203630829290251,0.1560648865777119,0.0
-0.13805116868629083,-0.0321146288054739,0.15634651855784876,0.0
-0.13806136108176245,-0.03204971933957569,0.15645568447776848,0.0
-0.13807074881443368,-0.03208029652599055,0.1563129909411658,0.0
-0.13805036402349044,-0.032071177014252786,0.15613247825294474,0.0
-0.13809918023338083,-0.03209934021226647,0.15614374353215021,0.0
-0.13807772255870374,-0.032118383898542394,0.15633981303451217,0.0
-0.13803453898841608,-0.032137427584818315,0.1563033349875611,0.0
-0.13805894709336128,-0.03212240721254435,0.1563897021281364,0.0
-0.13806511617483094,-0.03213206316614904,0.15651442486219702,0.0
-0.13809167004724385,-0.03212535764281245,0.15664504845679383,0.0
-0.13804902291882312,-0.032084856281859434,0.15638916568626948,0.0
-0.13807933188430452,-0.032170955201501275,0.15641598777961585,0.0
-0.13808120943083876,-0.03222299006259323,0.15680812678433975,0.0
-0.13808550096577418,-0.03223237779526446,0.1572429129174844,0.0
-0.1380321250000149,-0.032017264606626586,0.1564001627445415,0.0
-0.13806055641896206,-0.03206634903745044,0.15541150038379437,0.0
-0.13804258561642,-0.032168809434033566,0.1558344847958666,0.0
-0.1380602881980286,-0.03225785878394351,0.15609197689199172,0.0
-0.13803748941868418,-0.0319107808960415,0.15612630917147508,0.0
-0.13803185677908145,-0.031977567908473954,0.15610351039213066,0.0
-0.13804204917455307,-0.03213394071268329,0.15610082818279603,0.0
-0.13803534365121647,-0.03210845972400424,0.15616841985802887,0.0
-0.1380551920002928,-0.032093707572663735,0.1561630554393596,0.0
-0.1380543873374924,-0.03210121775880072,0.15620382502124608,0.0
-0.13803158855814798,-0.0320998766541334,0.15625183656833608,0.0
-0.13799135541812843,-0.03207707787478899,0.15606300903117765,0.0
-0.13801066732533782,-0.0321057775146696,0.15611772610160424,0.0
-0.13806672550043173,-0.032137427584818315,0.15636288003479004,0.0
-0.13804446316295424,-0.03209424401453066,0.15628375485941826,0.0
-0.13804419494202078,-0.032117042793875075,0.1560072190770172,0.0
-0.13806270218642977,-0.0321508386314915,0.1560345776122305,0.0
-0.13806457973296402,-0.0320548155373115,0.15632613376690552,0.0
-0.1380846963029738,-0.03199097895514714,0.1562885828362206,0.0
-0.13806967593069983,-0.032091561805196026,0.15616922452082926,0.0
-0.13806940770976636,-0.032044891362773345,0.15621348097485077,0.0
-0.13801200843000513,-0.032077614316655914,0.15622233226565507,0.0
-0.13802139616267636,-0.03207224989798664,0.15633525327864328,0.0
-0.13811554171032212,-0.03210631395653653,0.15621133520738306,0.0
-0.13811285950098748,-0.03217363741083591,0.15608956290359055,0.0
-0.13807664967496988,-0.03213286782894943,0.15613516046227938,0.0
-0.13804419494202078,-0.03198159122247591,0.15613113714827742,0.0
-0.13805626488402664,-0.032191339992444515,0.15612282229934005,0.0
-0.13804339027922038,-0.0321714916433682,0.15614052488094865,0.0
-0.1380581424305609,-0.03203925872317061,0.1559377498552501,0.0
-0.13805760598869396,-0.032015655281025804,0.15622152760285468,0.0
-0.13810803152418513,-0.032069031246785076,0.156348396104383,0.0
-0.13812546588486027,-0.03209531689826452,0.15617512538136546,0.0
-0.13810722686138474,-0.03219616796924686,0.1561719067301639,0.0
-0.13809676624497966,-0.03208190585159133,0.1561941690676414,0.0
-0.13809515691937888,-0.03210926438680463,0.15614374353215021,0.0
-0.13805626488402664,-0.032099608433199936,0.15618853642803865,0.0
-0.13808281875643955,-0.032159958143229264,0.15632425622037127,0.0
-0.13809408403564502,-0.03217551495737016,0.15623896196352982,0.0
-0.13807906366337105,-0.03208914781679485,0.15614427997401714,0.0
-0.13810722686138474,-0.03214574243375569,0.15621965005632044,0.0
-0.1380602881980286,-0.032159958143229264,0.15610672904333223,0.0
-0.13805465555842586,-0.0321596899222958,0.15601151061195262,0.0
-0.13806055641896206,-0.032149765747757644,0.1561032421711972,0.0
-0.13807638145403642,-0.03218222048070675,0.15607937050811893,0.0
-0.1380248830348114,-0.03219160821337798,0.15604289246116787,0.0
-0.13806565261669787,-0.03227422026088479,0.1560021228792814,0.0
-0.13805626488402664,-0.0321929493180453,0.15628402308035172,0.0
-0.13802354193014407,-0.032127235189346695,0.156108338368933,0.0
-0.13804821825602273,-0.0322018006088496,0.15614347531121675,0.0
-0.13807611323310295,-0.032209579015920045,0.15626256540567462,0.0
-0.13807691789590334,-0.032178197166704794,0.15612630917147508,0.0
-0.138053582674692,-0.03223774221393373,0.15605871749624223,0.0
-0.13805787420962742,-0.03241610913468708,0.15606247258931072,0.0
-0.13803614831401687,-0.03236380605266166,0.15611906720627156,0.0
-0.1379975244995981,-0.03201994681596122,0.15620704367244764,0.0
-0.13803641653495033,-0.03213930513135256,0.15626229718474116,0.0
-0.13802085972080944,-0.03219187643431144,0.15607615185691737,0.0
-0.1380093262206705,-0.0322313049115306,0.15592836212257888,0.0
-0.1380203232789425,-0.0321929493180453,0.15612416340400737,0.0
-0.13805841065149435,-0.03219241287617837,0.1561402566600152,0.0
-0.13804151273268614,-0.03219321753897876,0.15612362696214044,0.0
-0.13801281309280553,-0.03219697263204725,0.15616439654402692,0.0
-0.13806055641896206,-0.032288972412225295,0.15612443162494083,0.0
-0.13807745433777027,-0.03222111251605898,0.1561120934620015,0.0
-0.13804580426762156,-0.032158617038561946,0.15611102057826765,0.0
-0.13800074315079966,-0.032254103690875016,0.1561230905202735,0.0
-0.1380661890585648,-0.03223318245806485,0.15603216362382932,0.0
-0.13808711029137496,-0.03220823791125273,0.15601580214688804,0.0
-0.13807664967496988,-0.032210383678720436,0.15607749296158469,0.0
-0.13807530857030256,-0.03220716502751887,0.15603270006569625,0.0
-0.13805680132589357,-0.03231633094743859,0.15605388951943988,0.0
-0.13805921531429474,-0.032254103690875016,0.1561112887992011,0.0
-0.1380640432910971,-0.032211724783387755,0.15617673470696625,0.0
-0.1380439267210873,-0.03208110118879094,0.1560981459734614,0.0
-0.13807960010523798,-0.032200191283248816,0.15615098549735373,0.0
-0.1380498275816235,-0.03217336918990245,0.156108338368933,0.0
-0.13802354193014407,-0.03216961409683396,0.15601177883288608,0.0
-0.13803132033721452,-0.032165590782832,0.15603055429822854,0.0
-0.13802085972080944,-0.03211972500320971,0.15613328291574513,0.0
-0.13804017162801882,-0.03211945678227625,0.15620194747471183,0.0
-0.1380232737092106,-0.0322018006088496,0.15607239676384888,0.0
-0.13803856230241804,-0.032189998887777196,0.1560211665655573,0.0
-0.13804607248855502,-0.032221917178859374,0.1560501344263714,0.0
-0.13803239322094837,-0.032244447737270324,0.1560034639839487,0.0
-0.13803534365121647,-0.03223050024873021,0.15597825121620312,0.0
-0.13806592083763133,-0.03212482120094552,0.1561112887992011,0.0
-0.138072089919101,-0.03215217973615882,0.15605201197290564,0.0
-0.13805760598869396,-0.032204482818184235,0.15597959232087044,0.0
-0.13805250979095815,-0.032296214377428814,0.1559592075299272,0.0
-0.13803051567441413,-0.03214735175935647,0.15602036190275692,0.0
-0.13804365850015385,-0.032185439131908314,0.15625183656833608,0.0
-0.1380366847558838,-0.03224552062100418,0.15609626842692714,0.0
-0.13805170512815776,-0.03229245928436032,0.15599675846061212,0.0
-0.13805626488402664,-0.0322557130164758,0.156108338368933,0.0
-0.13803185677908145,-0.032291118179693004,0.15614427997401714,0.0
-0.13806511617483094,-0.03225973633047775,0.15610351039213066,0.0
-0.13807262636096793,-0.032246057062871106,0.15607642007785083,0.0
-0.1380551920002928,-0.03223398712086524,0.15612148119467273,0.0
-0.13808871961697575,-0.03229004529595915,0.15608607603145552,0.0
-0.13810347176831625,-0.03223103669059714,0.1560337729494301,0.0
-0.1380691394888329,-0.032268587621282055,0.15608661247332245,0.0
-0.138013081313739,-0.032277975353953284,0.15618397667216977,0.0
-0.13800798511600318,-0.032368365808530544,0.15615393592762183,0.0
-0.1380948886984454,-0.03247565418191602,0.15590931843630296,0.0
-0.13811768747778982,-0.03225008037687306,0.15583046148186463,0.0
-0.13813002564072915,-0.03220099594604921,0.15613757445068055,0.0
-0.13805572844215971,-0.032265637191013954,0.1562944836967568,0.0
-0.13803641653495033,-0.032259199888610826,0.15616439654402692,0.0
-0.13805197334909122,-0.03225812700487697,0.1561348922413459,0.0
-0.1380699441516333,-0.03231177119156971,0.15616117789282535,0.0
-0.13808818317510882,-0.03231203941250317,0.15613033248547703,0.0
-0.13808496452390726,-0.03231203941250317,0.1561238951830739,0.0
-0.138083086977373,-0.03230587033103351,0.15612148119467273,0.0
-0.13806377507016362,-0.03230908898223507,0.1561483032880191,0.0
-0.1380447313838877,-0.032302919900765406,0.15632720665063937,0.0
-0.1380602881980286,-0.03230104235423116,0.1561992652653772,0.0
-0.13807852722150413,-0.03240591673921546,0.15590931843630296,0.0
-0.13806967593069983,-0.032310966528769317,0.1560404784727667,0.0
-0.138083086977373,-0.032376412436534455,0.1558564789124106,0.0
-0.1381053493148505,-0.03232357291264211,0.15601419282128726,0.0
-0.1381150052684552,-0.03230828431943468,0.15626846626621083,0.0
-0.13809059716351,-0.032563898869025575,0.15611745788067077,0.0
-0.13810052133804815,-0.03227475670275172,0.15618317200936938,0.0
-0.13812144257085832,-0.03218061115510597,0.15613757445068055,0.0
-0.13810642219858435,-0.03228494909822334,0.15617914869536742,0.0
-0.13812948919886223,-0.03230908898223507,0.1561786122535005,0.0
-0.13811956502432407,-0.03231498984277127,0.15600292754208178,0.0
-0.13812278367552563,-0.03237158445973211,0.15615259482295452,0.0
-0.13811580993125558,-0.03236809758759708,0.15606837344984692,0.0
-0.13808791495417536,-0.0323664882619963,0.15606837344984692,0.0
-0.13809408403564502,-0.032369170471330935,0.15607615185691737,0.0
-0.13810186244271547,-0.03236756114573015,0.15611262990386843,0.0
-0.1381104455125863,-0.03239089636694149,0.1561128981248019,0.0
-0.13809301115191117,-0.032387409494806466,0.15601982546089,0.0
-0.13808228231457262,-0.03239813833214501,0.15599193048380977,0.0
-0.1381230518964591,-0.032415840913753616,0.15622635557965703,0.0
-0.13813834048966653,-0.03241557269282015,0.1560906357873244,0.0
-0.13813673116406575,-0.032536808554745736,0.15600748729795066,0.0
-0.13811822391965675,-0.032388750599473784,0.15609090400825787,0.0
-0.13812627054766066,-0.032497380077526575,0.15606274081024418,0.0
-0.13807262636096793,-0.03231498984277127,0.156060326821843,0.0
-0.13808550096577418,-0.03223666933019988,0.1560434289030348,0.0
-0.13815899350154323,-0.03227770713301982,0.15608366204305435,0.0
-0.1381340489547311,-0.032402698088013895,0.15615474059042223,0.0
-0.13811366416378787,-0.032394651460009985,0.15606810522891346,0.0
-0.13810052133804815,-0.03234181193611764,0.15617217495109736,0.0
-0.13808120943083876,-0.032410744716017806,0.15606059504277647,0.0
-0.1380691394888329,-0.032430324844160655,0.15595491599499178,0.0
-0.1380455360466881,-0.03242710619295909,0.15636556224412468,0.0
-0.13811473704752172,-0.032405648518281996,0.15626149252194077,0.0
-0.13810990907071938,-0.03244185834429959,0.15598790716980782,0.0
-0.13813083030352954,-0.03246707111204518,0.15591307352937145,0.0
-0.1381340489547311,-0.032464657123644006,0.1559755690068685,0.0
-0.1381260023267272,-0.03244668632110194,0.15613113714827742,0.0
-0.13812412478019295,-0.03252688438020758,0.15608688069425591,0.0
-0.1381142006056548,-0.032458756263107805,0.15604664755423636,0.0
-0.13814638711767044,-0.0325429776362154,0.1560544259613068,0.0
-0.1381209061289914,-0.03234181193611764,0.1560855395895886,0.0
-0.13812948919886223,-0.032540295426880764,0.15596457194859648,0.0
-0.1381074950823182,-0.032447759204835794,0.15612443162494083,0.0
-0.13811607815218904,-0.032314453400904344,0.15620650723058072,0.0
-0.1381348536175315,-0.03239357857627613,0.15610270572933027,0.0
-0.13812841631512837,-0.03239196925067535,0.15607320142664927,0.0
-0.13810856796605206,-0.032433275274428755,0.15609412265945943,0.0
-0.1380897925007096,-0.032435152820963,0.1559651083904634,0.0
-0.13806672550043173,-0.032454464728172386,0.155990321158209,0.0
-0.13813136674539647,-0.0324949660891254,0.15615474059042223,0.0
-0.13814906932700508,-0.03239331035534267,0.1560750789731835,0.0
-0.1381209061289914,-0.03240886716948356,0.15606005860090955,0.0
-0.13812412478019295,-0.03243783503029764,0.15597932409993698,0.0
-0.13810025311711469,-0.03243703036749725,0.15624110773099753,0.0
-0.13811688281498943,-0.03240725784388278,0.15616198255562574,0.0
-0.13813297607099725,-0.03245044141417043,0.15606381369397804,0.0
-0.13818608381582306,-0.03247940927498451,0.15602653098422659,0.0
-0.13815899350154323,-0.03246224313524283,0.15599783134434597,0.0
-0.13810964084978591,-0.0323037245635658,0.1561579592416238,0.0
-0.1381718681063495,-0.03243649392563032,0.15612255407840658,0.0
-0.13816194393181133,-0.0323841908436049,0.1560951955431933,0.0
-0.1381445095711362,-0.032444272332700766,0.15607186032198195,0.0
-0.13810937262885245,-0.03238204507613719,0.15582053730732648,0.0
-0.1381517515363397,-0.03237882642493563,0.1561179943225377,0.0
-0.1381887660251577,-0.0324233510998906,0.15633525327864328,0.0
-0.13813619472219882,-0.032471094426047134,0.15632667020877244,0.0
-0.1381437049083358,-0.03243381171629568,0.1560906357873244,0.0
-0.13816087104807748,-0.032386604832006075,0.1559954173559448,0.0
-0.13820539572303245,-0.032527957263941434,0.15601151061195262,0.0
-0.13815228797820664,-0.03248450547272032,0.15602304411209156,0.0
-0.13813941337340038,-0.0323812404133368,0.1559806652046043,0.0
-0.13814236380366848,-0.03243354349536222,0.1559525020065906,0.0
-0.13813673116406575,-0.03247940927498451,0.1560412831355671,0.0
-0.1381525561991401,-0.032456610495640095,0.15611826254347116,0.0
-0.13813539005939843,-0.032414231588152834,0.15613918377628133,0.0
-0.1380860374076411,-0.03248182326338568,0.1561297960436101,0.0
-0.13808362341923994,-0.03256792218302753,0.1560766882987843,0.0
-0.1381209061289914,-0.03253627211287881,0.15609492732225982,0.0
-0.13813217140819686,-0.03229943302863038,0.15610967947360033,0.0
-0.13811527348938865,-0.032325450459176355,0.15593238543658083,0.0
-0.13810776330325167,-0.032345030587319204,0.15597422790220117,0.0
-0.13813887693153346,-0.032435152820963,0.15626766160341043,0.0
-0.13812948919886223,-0.032474044856315235,0.15605657172877452,0.0
-0.13809596158217927,-0.032438371472164565,0.1560396738099663,0.0
-0.13806082463989552,-0.032472703751647916,0.15604369712396826,0.0
-0.138101594221782,-0.03252447039180641,0.15600856018168452,0.0
-0.13806377507016362,-0.03249255210072423,0.15600882840261798,0.0
-0.13810400821018318,-0.03245044141417043,0.15598388385580586,0.0
-0.13811312772192094,-0.03244454055363423,0.15592058371550843,0.0
-0.13809971667524776,-0.03255477935728781,0.15593694519244972,0.0
-0.13810347176831625,-0.03242415576269099,0.15605683994970798,0.0
-0.13811017729165284,-0.03241476803001976,0.15603270006569625,0.0
-0.13811473704752172,-0.03242469220455792,0.15594686936698787,0.0
-0.13809086538444346,-0.032408598948550096,0.1559873707279409,0.0
-0.1380927429309777,-0.03243300705349529,0.15595303844845754,0.0
-0.13811956502432407,-0.03257462770636412,0.15598817539074128,0.0
-0.13809542514031234,-0.03253037125234261,0.15580658981878637,0.0
-0.13807986832617145,-0.03250945001953244,0.15604289246116787,0.0
-0.1380661890585648,-0.03237292556439943,0.15619068219550636,0.0
-0.13811607815218904,-0.03238472728547183,0.15599595379781173,0.0
-0.1381563112922086,-0.032413695146285906,0.15602438521675888,0.0
-0.13813083030352954,-0.03243005662322719,0.15616171433469228,0.0
-0.1381120548381871,-0.032449368530436576,0.15600856018168452,0.0
-0.13811661459405597,-0.032455805832839704,0.15604691577516983,0.0
-0.13811098195445323,-0.032452318960704676,0.1561504490554868,0.0
-0.1381061539776509,-0.032511864007933614,0.15583475301680005,0.0
-0.1381268069895276,-0.03254378229901579,0.15582643816786268,0.0
-0.13812707521046105,-0.03244373589083384,0.1560139246003538,0.0
-0.13814209558273502,-0.032501135170595066,0.15582751105159653,0.0
-0.13813834048966653,-0.032514814438201714,0.15601446104222072,0.0
-0.1381112501753867,-0.032530907694209535,0.1561697609626962,0.0
-0.13809596158217927,-0.03255021960141893,0.15610860658986647,0.0
-0.13816972233888178,-0.032481286821518754,0.15604986620543793,0.0
-0.13818232872275457,-0.032447759204835794,0.15605630350784105,0.0
-0.13813726760593267,-0.032463047798043224,0.15610753370613262,0.0
-0.1381150052684552,-0.032492283879790765,0.1560573763915749,0.0
-0.13814504601300312,-0.03262344391625451,0.156001318216481,0.0
-0.1381340489547311,-0.032587234090236915,0.15600748729795066,0.0
-0.1381517515363397,-0.032471899088847525,0.15602438521675888,0.0
-0.13815577485034167,-0.03248262792618607,0.15599112582100938,0.0
-0.13811554171032212,-0.03242066889055596,0.15602921319356122,0.0
-0.13811232305912055,-0.032499525844994284,0.15606864167078038,0.0
-0.13816623546674675,-0.03246733933297864,0.1560994870781287,0.0
-0.1382005677462301,-0.03253788143847959,0.15606756878704653,0.0
-0.1381938622228935,-0.03270337375442669,0.15603779626343206,0.0
-0.13814692355953737,-0.03248986989138959,0.15610351039213066,0.0
-0.1381651625830129,-0.032482091484319145,0.15611692143880385,0.0
-0.1380986437915139,-0.032520715298737915,0.1559785194371366,0.0
-0.13807933188430452,-0.03254056364781423,0.15606810522891346,0.0
-0.13816355325741211,-0.03254646450835043,0.15606810522891346,0.0
-0.138149605768872,-0.03257248193889641,0.1559554524368587,0.0
-0.1381222472336587,-0.03247350841444831,0.1559511609019233,0.0
-0.138109104407919,-0.0325917938461058,0.15601043772821876,0.0
-0.13810588575671742,-0.032595280718240825,0.1561874635443048,0.0
-0.13818259694368804,-0.03244239478616652,0.15601446104222072,0.0
-0.13814638711767044,-0.03245526939097278,0.1560619361474438,0.0
-0.1381458506758035,-0.03262263925345412,0.15605496240317374,0.0
-0.1381643579202125,-0.03244534521643462,0.15601767969342228,0.0
-0.13816087104807748,-0.032550756043285854,0.15588920186629318,0.0
-0.13814397312926927,-0.03255048782235239,0.15601365637942033,0.0
-0.13813002564072915,-0.03249469786819194,0.15612362696214044,0.0
-0.13810266710551586,-0.032564703531825966,0.15606542301957882,0.0
-0.13813941337340038,-0.032457951600307414,0.1558535284821425,0.0
-0.13815362908287396,-0.032457951600307414,0.15591307352937145,0.0
-0.1381369993849992,-0.03247940927498451,0.15612416340400737,0.0
-0.13817133166448256,-0.032521519961538306,0.15602840853076083,0.0
-0.13815201975727318,-0.03246733933297864,0.15606542301957882,0.0
-0.1381340489547311,-0.03248048215871836,0.1560662276823792,0.0
-0.13812412478019295,-0.03246653467017825,0.15600078177461407,0.0
-0.13807825900057066,-0.03251213222886708,0.15597127747193307,0.0
-0.13811527348938865,-0.03260305912531127,0.15618612243963748,0.0
-0.1381630168155452,-0.0324499049723035,0.1561069972642657,0.0
-0.13816918589701485,-0.03255772978755591,0.1558130271211895,0.0
-0.13814424135020273,-0.03259581716010775,0.15587552259868653,0.0
-0.13812734343139452,-0.03245526939097278,0.15599783134434597,0.0
-0.13818018295528686,-0.032587234090236915,0.15592702101791156,0.0
-0.13821076014170172,-0.03263417275359306,0.15591951083177458,0.0
-0.13818152405995418,-0.032563094206225184,0.15592326592484307,0.0
-0.13819815375782893,-0.03263363631172613,0.15588222812202313,0.0
-0.13820378639743167,-0.03272000345230144,0.15607454253131658,0.0
-0.138216124560371,-0.03286618386103915,0.15599407625127748,0.0
-0.13820190885089742,-0.0326966682310901,0.15603913736809938,0.0
-0.13817240454821642,-0.03262934477679071,0.1559806652046043,0.0
-0.13819144823449234,-0.03272751363843842,0.15589617561056324,0.0
-0.1382190749906391,-0.03263122232332496,0.15593828629711703,0.0
-0.13817589142035144,-0.032628003672123394,0.1559991724490133,0.0
-0.13819573976942776,-0.032760773034187916,0.15599783134434597,0.0
-0.13820539572303245,-0.032717053022033336,0.1560139246003538,0.0
-0.1382072732695667,-0.03268835338215272,0.15604906154263753,0.0
-0.1381895706879581,-0.03269452246362239,0.15603189540289586,0.0
-0.13818635203675653,-0.03271571191736602,0.1560080237398176,0.0
-0.13816918589701485,-0.03270203264975937,0.15599649023967865,0.0
-0.13817589142035144,-0.03273690137110965,0.1559739596812677,0.0
-0.1382418737699835,-0.03269264491708814,0.1559436507157863,0.0
-0.13826279500279368,-0.03269318135895507,0.15602250767022463,0.0
-0.13826574543306178,-0.03282407317448535,0.15605093908917178,0.0
-0.13822470763024183,-0.03256336242715865,0.15605388951943988,0.0
-0.13820110418809703,-0.032665286381874846,0.15601446104222072,0.0
-0.13822390296744144,-0.03282246384888457,0.15600614619328335,0.0
-0.13822390296744144,-0.03271812590576719,0.15604021025183323,0.0
-0.13821049192076826,-0.03274414333631317,0.1560367233796982,0.0
-0.13819869019969586,-0.032776061627395346,0.1559710092509996,0.0
-0.13820003130436317,-0.03282326851168496,0.15584494541227167,0.0
-0.1382241711883749,-0.03276560101099026,0.15596054863459452,0.0
-0.13818930246702463,-0.03271168860336406,0.15613972021814826,0.0
-0.13816355325741211,-0.03272080811510183,0.15608339382212089,0.0
-0.13823060849077803,-0.032697204672957024,0.15622823312619127,0.0
-0.13818635203675653,-0.03266501816094138,0.15618853642803865,0.0
-0.13814424135020273,-0.03274307045257931,0.15590422223856715,0.0
-0.13826091745625943,-0.03282916937222116,0.15610485149679798,0.0
-0.13823329070011267,-0.03277042898779261,0.15616278721842614,0.0
-0.13822390296744144,-0.03285947833770256,0.1560884900198567,0.0
-0.13821666100223792,-0.03283721600022507,0.1560632772521111,0.0
-0.1382064686067663,-0.032729391184972666,0.15608285738025396,0.0
-0.1381828651646215,-0.032729391184972666,0.15607910228718547,0.0
-0.13818420626928882,-0.032689962707753505,0.15604101491463362,0.0
-0.13821666100223792,-0.032706860626561716,0.15612443162494083,0.0
-0.13820029952529664,-0.03270176442882591,0.15616171433469228,0.0
-0.13821880676970563,-0.032711152161497135,0.1561992652653772,0.0
-0.13820700504863323,-0.03272080811510183,0.15614964439268642,0.0
-0.13822658517677608,-0.032845530849162446,0.1560227758911581,0.0
-0.13823624113038077,-0.032923314919866914,0.15581785509799184,0.0
-0.13816650368768021,-0.03290909921039334,0.15610002351999563,0.0
-0.13819654443222815,-0.03287288938437574,0.15620918943991535,0.0
-0.13826359966559407,-0.03288227711704697,0.1561297960436101,0.0
-0.1382287309442438,-0.03286752496570647,0.1561941690676414,0.0
-0.13819949486249625,-0.032871011837841496,0.15611933542720502,0.0
-0.13818715669955692,-0.03292385136173384,0.15614293886934982,0.0
-0.13821397879290329,-0.033001367211504845,0.15610860658986647,0.0
-0.13826789120052949,-0.032990370153232834,0.1561112887992011,0.0
-0.1382759378285334,-0.03300887739764183,0.1560648865777119,0.0
-0.1382198796534395,-0.03287637625651077,0.15610485149679798,0.0
-0.13823945978158234,-0.032860014779569485,0.15624486282406602,0.0
-0.13826950052613027,-0.032901589024256356,0.1562317199983263,0.0
-0.13821853854877217,-0.032851163488765184,0.1559229977039096,0.0
-0.13818983890889155,-0.03285760079116831,0.15611343456666882,0.0
-0.13824428775838468,-0.032886300431048926,0.15619524195137524,0.0
-0.1382654772121283,-0.03294504081547747,0.1561445481949506,0.0
-0.13824375131651775,-0.03294209038520937,0.15610592438053184,0.0
-0.13829471329387585,-0.03294691836201172,0.1563454456741149,0.0
-0.13830946544521636,-0.03292465602453423,0.1562974341270249,0.0
-0.13830061415441205,-0.03295281922254792,0.1561770029278997,0.0
-0.13825769880505787,-0.033031139735119314,0.15618263556750245,0.0
-0.13822819450237686,-0.03299090659509976,0.15630762652249652,0.0
-0.13826869586332988,-0.03300083076963792,0.15635617451145345,0.0
-0.1382944450729424,-0.033115092887293446,0.1562161631841854,0.0
-0.13822014787437295,-0.03315854467851456,0.15618478133497016,0.0
-0.13817830540875262,-0.03320521512093724,0.15623118355645937,0.0
-0.13830490568934747,-0.03324303427255562,0.15623306110299362,0.0
-0.13831241587548446,-0.03318241634159283,0.1560699827754477,0.0
-0.13828049758440228,-0.0332926551452464,0.15631996468543585,0.0
-0.13828452089840423,-0.03338170449515635,0.156185854218704,0.0
-0.1383016870381459,-0.03329077759871216,0.1560994870781287,0.0
-0.1382729873982653,-0.03309953607315255,0.15628965571995446,0.0
-0.13829310396827507,-0.03322023549321121,0.15624218061473139,0.0
-0.13829551795667624,-0.03321755328387657,0.15621079876551613,0.0
-0.13832850913149228,-0.033319745459526234,0.15619738771884295,0.0
-0.13828908065427312,-0.033155326027313,0.1562877781734202,0.0
-0.13828666666587194,-0.03314432896904099,0.15627114847554546,0.0
-0.13830383280561362,-0.03322559991188048,0.15626256540567462,0.0
-0.13828934887520658,-0.03315854467851456,0.1562797315454163,0.0
-0.13832126716628876,-0.03319260873706445,0.15632425622037127,0.0
-0.13826762297959602,-0.03314137853877289,0.15623601153326172,0.0
-0.13828157046813613,-0.0331759790391897,0.15637012199999356,0.0
-0.13822363474650798,-0.033098194968485234,0.15635671095332038,0.0
-0.1383032963637467,-0.03314325608530713,0.1561740524976316,0.0
-0.13835157613177015,-0.03326422372629925,0.15612148119467273,0.0
-0.1383336053292281,-0.03315934934131495,0.15630092099915993,0.0
-0.1383357510966958,-0.03305393851446373,0.15637816862799747,0.0
-0.13830490568934747,-0.033016655804712275,0.15624620392873334,0.0
-0.1383180485150872,-0.03315988578318188,0.15642108397735166,0.0
-0.13831402520108524,-0.03321433463267501,0.1563787050698644,0.0
-0.13828452089840423,-0.03291848694306457,0.15637226776746127,0.0
-0.1382885442124062,-0.03294396793174362,0.1563698537790601,0.0
-0.13831295231735138,-0.032963548059886466,0.15633552149957675,0.0
-0.13830866078241597,-0.0329544285481487,0.1562982387898253,0.0
-0.138312147654551,-0.032983128188029315,0.1563534923021188,0.0
-0.1383180485150872,-0.0330083409557749,0.15632157401103663,0.0
-0.13832180360815569,-0.03303087151418585,0.15627785399888205,0.0
-0.13827647427040032,-0.03291151319879451,0.15622474625405625,0.0
-0.1383209989453553,-0.033027652862984286,0.15614374353215021,0.0
-0.1382684276423964,-0.03284284863982781,0.15643422680309138,0.0
-0.1382944450729424,-0.03287262116344228,0.1563765593023967,0.0
-0.1382692323051968,-0.03286672030290608,0.15611906720627156,0.0
-0.13827057340986412,-0.03294799124574557,0.15614427997401714,0.0
-0.13825635770039055,-0.032968644257622276,0.15647606926871171,0.0
-0.1382536754910559,-0.032709006394029426,0.15641142802374697,0.0
-0.1382818386890696,-0.03283319268622312,0.15629555658049066,0.0
-0.13827835181693457,-0.03284579907009591,0.15638031439546518,0.0
-0.13833333710829462,-0.03300109899057138,0.1562767811151482,0.0
-0.13832260827095608,-0.0330142418163111,0.15632371977850434,0.0
-0.1383180485150872,-0.032803688383542105,0.15640660004694462,0.0
-0.1383239493756234,-0.032871011837841496,0.15623520687046133,0.0
-0.13827996114253535,-0.03281200323247948,0.15646480398950624,0.0
-0.13830061415441205,-0.03281227145341294,0.15634008125544563,0.0
-0.1383193896197545,-0.032780353162330765,0.1561276502761424,0.0
-0.13827862003786803,-0.0327025690916263,0.1562346704285944,0.0
-0.13825716236319094,-0.03278088960419769,0.15624834969620105,0.0
-0.13826359966559407,-0.03281119856967909,0.15622742846339088,0.0
-0.13824616530491893,-0.03280315194167518,0.15617002918362966,0.0
-0.13827352384013222,-0.03284526262822898,0.15617941691630088,0.0
-0.13829310396827507,-0.032857064349301385,0.15630092099915993,0.0
-0.13828022936346882,-0.03283533845369083,0.15632881597624015,0.0
-0.13826225856092675,-0.032871011837841496,0.156281877312884,0.0
-0.1382780835960011,-0.03277579340646188,0.1563993580817411,0.0
-0.13825045683985435,-0.032678429207614566,0.15626524761500926,0.0
-0.13833065489896,-0.03275889548765367,0.15639372544213836,0.0
-0.1383703515971126,-0.03277874383672998,0.1564473696288311,0.0
-0.13831992606162144,-0.032821122744217245,0.15632076934823624,0.0
-0.13831590274761948,-0.03270122798695898,0.15635241941838496,0.0
-0.13826467254932792,-0.03259393961357351,0.1563985534189407,0.0
-0.13826145389812636,-0.03271463903363216,0.15637039022092702,0.0
-0.1382995412706782,-0.032660190184139036,0.15633203462744172,0.0
-0.13831000188708328,-0.032639000730395405,0.1561888046489721,0.0
-0.13828720310773887,-0.03269237669615468,0.1561609096718919,0.0
-0.1383150980848191,-0.03268030675414881,0.15660159666557272,0.0
-0.13825206616545513,-0.03268325718441691,0.15656833726982322,0.0
-0.1382013724090305,-0.032687012277485404,0.15639077501187026,0.0
-0.13824401953745122,-0.03273314627804116,0.15641625600054931,0.0
-0.1382869348868054,-0.03275031241778283,0.15638514237226753,0.0
-0.13825582125852362,-0.0326516071142682,0.15641545133774892,0.0
-0.13828130224720267,-0.03281495366274758,0.15651496130406395,0.0
-0.13825689414225747,-0.03280127439514093,0.15646614509417356,0.0
-0.13824804285145317,-0.03266287239347367,0.1564961858387215,0.0
-0.13826762297959602,-0.03275084885964976,0.15644334631482915,0.0
-0.1383239493756234,-0.032885495768248535,0.15634088591824602,0.0
-0.1383083925614825,-0.0328975657102544,0.15639774875614032,0.0
-0.13824214199091697,-0.03263873250946194,0.15652247149020093,0.0
-0.13828613022400502,-0.032721344556968755,0.15643127637282328,0.0
-0.13830356458468016,-0.03278437647633272,0.1562510319055357,0.0
-0.1382973955032105,-0.03266716392840909,0.15631486848770004,0.0
-0.13830115059627898,-0.032663677056274064,0.15647150951284283,0.0
-0.13826172211905982,-0.03260788710211362,0.1563972123142734,0.0
-0.1382359729094473,-0.032627199009323,0.15646453576857278,0.0
-0.13824696996771932,-0.03259501249730736,0.1564717777337763,0.0
-0.1382523343863886,-0.032557998008489374,0.15645139294283306,0.0
-0.13828613022400502,-0.03265992196320557,0.15638997034906987,0.0
-0.13829498151480932,-0.03264356048626429,0.1563719995465278,0.0
-0.13826574543306178,-0.032684061847217304,0.15641947465175088,0.0
-0.13828532556120463,-0.03277901205766345,0.15639533476773915,0.0
-0.13826172211905982,-0.03265482576546976,0.15641679244241624,0.0
-0.13823060849077803,-0.032548610275818145,0.1564275212797548,0.0
-0.1382582352469248,-0.03263122232332496,0.1565004773736569,0.0
-0.13826386788652753,-0.032737437812976576,0.15643664079149255,0.0
-0.13822819450237686,-0.032737437812976576,0.15648706632698373,0.0
-0.13822765806050993,-0.03266179950973982,0.15650101381552384,0.0
-0.13825018861892088,-0.032689158044953114,0.15638594703506792,0.0
-0.13825287082825552,-0.032674674114546075,0.15623654797512865,0.0
-0.13824884751425356,-0.03265026600960088,0.15652220326926747,0.0
-0.1382257805139757,-0.032602522683444345,0.15664424379399344,0.0
-0.1382611856771929,-0.03271785768483373,0.15651925283899937,0.0
-0.13825287082825552,-0.032703105533493225,0.1565050371295258,0.0
-0.1382507250607878,-0.032675210556413,0.15651791173433205,0.0
-0.13825635770039055,-0.032647047358399316,0.15651254731566278,0.0
-0.13827647427040032,-0.03275755438298635,0.15651844817619898,0.0
-0.1382212207581068,-0.03255772978755591,0.15660374243304043,0.0
-0.1382064686067663,-0.03253439456634456,0.15656753260702283,0.0
-0.13824536064211854,-0.03264463336999814,0.15648813921071758,0.0
-0.13826950052613027,-0.03262827189305686,0.15645058828003267,0.0
-0.13824214199091697,-0.032567653962094066,0.15657477457222635,0.0
-0.13824026444438273,-0.03265804441667133,0.1565366871996745,0.0
-0.13824804285145317,-0.03271785768483373,0.15651737529246512,0.0
-0.1382692323051968,-0.03268218430068306,0.15654956180448076,0.0
-0.13824133732811658,-0.0326212981487868,0.1565211303855336,0.0
-0.13820700504863323,-0.03266904147494334,0.1563255973250386,0.0
-0.13821880676970563,-0.03264168293973004,0.15648036080364713,0.0
-0.1382737920610657,-0.032628808334923785,0.15685855231983092,0.0
-0.13827942470066842,-0.032687012277485404,0.1566040106539739,0.0
-0.1382855937821381,-0.032673869451745684,0.1565640457348878,0.0
-0.13827245095639837,-0.032513473333534396,0.1565943547003692,0.0
-0.13831912139882105,-0.03256014377595708,0.15655868131621853,0.0
-0.1383446023875001,-0.032564703531825966,0.1565522440138154,0.0
-0.13829927304974474,-0.03246626644924479,0.15657906610716177,0.0
-0.13829471329387585,-0.0324861147983211,0.1565787978862283,0.0
-0.1383105383289502,-0.032474849519115626,0.15649296718751993,0.0
-0.13833387355016155,-0.032483164368053,0.15630548075502881,0.0
-0.13828586200307155,-0.03254887849675161,0.15679873905166852,0.0
-0.13826735475866256,-0.03250435382179663,0.15694196903013813,0.0
-0.13829498151480932,-0.032336983959315294,0.15650611001325965,0.0
-0.1382944450729424,-0.03251669198473596,0.15650986510632814,0.0
-0.13831268409641792,-0.03258535654370267,0.15656163174648663,0.0
-0.13827566960759993,-0.032481286821518754,0.15665738661973316,0.0
-0.13822980382797764,-0.0324684122167125,0.15665953238720087,0.0
-0.13834057907349814,-0.03251025468233283,0.1565796025490287,0.0
-0.13833145956176038,-0.03240028409961272,0.15661929924718132,0.0
-0.13831295231735138,-0.03239813833214501,0.15664960821266272,0.0
-0.13834272484096585,-0.032422278216156744,0.15650825578072736,0.0
-0.1383328006664277,-0.03244293122803345,0.15647660571057864,0.0
-0.1382957861776097,-0.032551560706086245,0.15657611567689367,0.0
-0.13831161121268407,-0.032394651460009985,0.1565943547003692,0.0
-0.13833414177109501,-0.032394651460009985,0.1565353460950072,0.0
-0.1383631096319091,-0.032530103031409144,0.15649564939685456,0.0
-0.13832207182908915,-0.032356027645591215,0.156750995725512,0.0
-0.13836176852724177,-0.03250435382179663,0.1565197892808663,0.0
-0.13835881809697367,-0.032568995066761385,0.15655626732781736,0.0
-0.13834406594563317,-0.03252473861273987,0.1568167098542106,0.0
-0.1383741066901811,-0.03257167727609602,0.15670164307375467,0.0
-0.13837571601578189,-0.03260815532304708,0.1566718705501402,0.0
-0.1383513079108367,-0.032619420602252557,0.1566541679685316,0.0
-0.13835211257363708,-0.03271973523136797,0.15665604551506584,0.0
-0.13834004263163122,-0.032562557764358256,0.1567110308064259,0.0
-0.13837222914364686,-0.032655093986403226,0.15660857040984277,0.0
-0.13830571035214786,-0.03266770037027602,0.1566313691891872,0.0
-0.1383454070503005,-0.03262263925345412,0.156799007272602,0.0
-0.13835291723643747,-0.032692108475221214,0.15679015598179769,0.0
-0.1383378968641635,-0.03269237669615468,0.1567700394117879,0.0
-0.13837517957391496,-0.03277686629019574,0.15671585878322825,0.0
-0.13839207749272317,-0.0328887144194501,0.1568357535404865,0.0
-0.13832582692215764,-0.0328554550237006,0.15679552040046696,0.0
-0.13835962275977406,-0.03278652224380043,0.15657423813035942,0.0
-0.13840039234166054,-0.032805834151009815,0.1568137594239425,0.0
-0.1383593545388406,-0.03266179950973982,0.1570876129970089,0.0
-0.13837303380644725,-0.03274628910378088,0.15692480289039645,0.0
-0.1383741066901811,-0.032836679558358145,0.15673731645790534,0.0
-0.1383542583411048,-0.0328259507210196,0.15672685584150026,0.0
-0.13839100460898932,-0.032866452081972614,0.1568091996680736,0.0
-0.13837866644604999,-0.03288683687291585,0.15696449958854908,0.0
-0.13840387921379557,-0.032944504373610545,0.15696476780948254,0.0
-0.13839154105085624,-0.03286618386103915,0.15693982326267042,0.0
-0.13835291723643747,-0.03285465036090021,0.1569156833786587,0.0
-0.13838644485312043,-0.032834533790890436,0.15689663969238277,0.0
-0.13835238079457055,-0.03280476126727596,0.15686579428503444,0.0
-0.1383770571204492,-0.03280315194167518,0.15679632506326735,0.0
-0.13837652067858228,-0.03271812590576719,0.15661661703784668,0.0
-0.138389663504322,-0.03259286672983965,0.15680598101687204,0.0
-0.1383749113529815,-0.03254163653154808,0.1569991000889659,0.0
-0.13838268976005194,-0.03267306478894529,0.15685908876169785,0.0
-0.1383837626437858,-0.03265375288173591,0.15682448826128104,0.0
-0.13835613588763904,-0.032539758985013836,0.15686338029663327,0.0
-0.13837222914364686,-0.03256872684582792,0.156810004330874,0.0
-0.1383542583411048,-0.03264731557933278,0.1568491645871597,0.0
-0.13842104535353725,-0.0326035955671782,0.15691219650652366,0.0
-0.13843713860954507,-0.03265804441667133,0.15702136242644338,0.0
-0.13838698129498736,-0.03267655166108032,0.15690280877385243,0.0
-0.13842533688847267,-0.03277284297619378,0.15679203352833193,0.0
-0.13841058473713216,-0.03277793917392959,0.1568867155178446,0.0
-0.1383741066901811,-0.032688621603086186,0.15686740361063523,0.0
-0.13835533122483865,-0.032687816940285795,0.15684380016849042,0.0
-0.13834057907349814,-0.032754872173651715,0.15692560755319684,0.0
-0.13836364607377602,-0.032790545557802385,0.15695350253027707,0.0
-0.13838027577165077,-0.03286457453543837,0.15687249980837104,0.0
-0.1383475528177682,-0.03287503515184345,0.15681939206354523,0.0
-0.13837088803897954,-0.03288683687291585,0.15713696564876625,0.0
-0.13835291723643747,-0.03279081377873585,0.15707768882247075,0.0
-0.13833601931762926,-0.032921169152399204,0.15699105346096198,0.0
-0.13830866078241597,-0.03301504647911149,0.1570522078337917,0.0
-0.1383542583411048,-0.033258591086696515,0.1569864937050931,0.0
-0.1384065614231302,-0.03320226469066914,0.1569738873212203,0.0
-0.13837088803897954,-0.0329123178615949,0.1569679864606841,0.0
-0.13838832239965468,-0.03298795616483166,0.15715010847450597,0.0
-0.13837088803897954,-0.033068422444870765,0.15708385790394042,0.0
-0.13839717369045898,-0.03301316893257725,0.15697710597242187,0.0
-0.13842936020247462,-0.03290319834985714,0.1571409889627682,0.0
-0.13842185001633764,-0.03286752496570647,0.1572171637078719,0.0
-0.1384095118533983,-0.032854918581833675,0.15692238890199528,0.0
-0.13839422326019088,-0.03281790409301568,0.1567198820972302,0.0
-0.13842453222567228,-0.032780353162330765,0.1570159980077741,0.0
-0.13843204241180926,-0.03281575832554797,0.15695216142560975,0.0
-0.13840870719059792,-0.03276560101099026,0.15698247039109114,0.0
-0.13840012412072708,-0.032729391184972666,0.1569612809373475,0.0
-0.13843338351647658,-0.032731536952440375,0.1569127329483906,0.0
-0.13842345934193842,-0.032759163708587134,0.157002050519234,0.0
-0.13841863136513607,-0.03277498874366149,0.1569961496586978,0.0
-0.1384258733303396,-0.03280985746501177,0.156906027425054,0.0
-0.13841782670233568,-0.03295952474588451,0.1569864937050931,0.0
-0.1384272144350069,-0.03286993895410764,0.15697013222815182,0.0
-0.1384073660859306,-0.03268459828908423,0.1569178291461264,0.0
-0.13843660216767814,-0.032822732069818034,0.15696637713508332,0.0
-0.1384679840168934,-0.03284204397702742,0.15698783480976042,0.0
-0.1384111211789991,-0.03286162410517027,0.15697871529802265,0.0
-0.13839878301605976,-0.03288093601237965,0.15688805662251193,0.0
-0.13841165762086602,-0.032923314919866914,0.15690039478545126,0.0
-0.13843257885367619,-0.03296006118775144,0.1570092924844375,0.0
-0.1384722755518288,-0.03291580473372993,0.15676387033031824,0.0
-0.13847629886583077,-0.03292599712920155,0.15696235382108137,0.0
-0.13843874793514585,-0.032950405234146746,0.1571219452764923,0.0
-0.1384545729702202,-0.03293913995494127,0.15707098329913416,0.0
-0.13845805984235524,-0.032813880779013725,0.15706052268272908,0.0
-0.13845054965621825,-0.03280342016260864,0.1570323594847154,0.0
-0.13844706278408322,-0.0327682832203249,0.15704818451978975,0.0
-0.13845966916795602,-0.032727245417504956,0.15708412612487388,0.0
-0.13844786744688362,-0.03264356048626429,0.15708305324114002,0.0
-0.1384384797142124,-0.03259930403224278,0.15706159556646293,0.0
-0.1384583280632887,-0.03252554327554026,0.15698488437949232,0.0
-0.13846396070289144,-0.03256631285742675,0.1571010240436821,0.0
-0.1384162173767349,-0.03250408560086317,0.15719114627732592,0.0
-0.13842640977220652,-0.03247216730978099,0.1570079513797702,0.0
-0.13842238645820457,-0.03254995138048546,0.1570492574035236,0.0
-0.13841460805113412,-0.03267306478894529,0.15708198035740617,0.0
-0.1384848819357016,-0.032905075896391384,0.15700151407736707,0.0
-0.13841138939993256,-0.032833729128090045,0.1570951231831459,0.0
-0.13837839822511652,-0.032870207175041105,0.1569658406932164,0.0
-0.13843204241180926,-0.03293753062934049,0.1572053619867995,0.0
-0.13844786744688362,-0.03295523321094909,0.15716271485837877,0.0
-0.1384982929823748,-0.03300699985110758,0.15712838257889541,0.0
-0.13844786744688362,-0.03299224769976708,0.15720777597520066,0.0
-0.13848434549383468,-0.03306734956113691,0.15708573545047466,0.0
-0.1384974883195744,-0.03295201455974753,0.157183099649322,0.0
-0.13847737174956462,-0.03295281922254792,0.1571195312880911,0.0
-0.13846583824942568,-0.03293994461774166,0.15707205618286801,0.0
-0.13848970991250395,-0.03288710509384932,0.15713616098596586,0.0
-0.13844169836541395,-0.03274655732471434,0.157183099649322,0.0
-0.13844759922595015,-0.0327623823597887,0.15715091313730636,0.0
-0.13849185567997166,-0.03270042332415859,0.15698998057722813,0.0
-0.1384899781334374,-0.03270203264975937,0.1571683474979815,0.0
-0.13847442131929652,-0.03272000345230144,0.15718229498652161,0.0
-0.1385143862383826,-0.0327114203824306,0.15712596859049424,0.0
-0.13851089936624758,-0.03265294821893552,0.15709592784594628,0.0
-0.13848622304036892,-0.032636050300127305,0.15697442376308723,0.0
-0.13851653200585032,-0.03277579340646188,0.15721823659160575,0.0
-0.13849695187770747,-0.03268835338215272,0.15724720445241983,0.0
-0.1384317741908758,-0.03255692512475552,0.1570846625667408,0.0
-0.1384583280632887,-0.03261003286958133,0.15710156048554902,0.0
-0.13851572734304993,-0.032605473113712445,0.15704094255458623,0.0
-0.1385232375291869,-0.032630954102391495,0.15700687849603634,0.0
-0.13845108609808518,-0.03257838279943261,0.15701277935657254,0.0
-0.13843070130714194,-0.03252768904300797,0.1571380385325001,0.0
-0.13842453222567228,-0.03253493100821149,0.15705918157806176,0.0
-0.13846476536569183,-0.03256363064809211,0.15696101271641405,0.0
-0.1384899781334374,-0.03261727483478485,0.1569089778553221,0.0
-0.1384663746912926,-0.032629612997724176,0.15703906500805198,0.0
-0.13843579750487775,-0.0326722601261449,0.15714152540463514,0.0
-0.1384982929823748,-0.03268754871935233,0.15702538574044533,0.0
-0.1385492549597329,-0.03272295388256954,0.15697308265841992,0.0
-0.13851948243611842,-0.03266421349814099,0.1570092924844375,0.0
-0.13849426966837283,-0.03267145546334451,0.15698193394922422,0.0
-0.1384760306448973,-0.03273716959204311,0.1568003483772693,0.0
-0.13848541837756853,-0.032596085381041216,0.15703879678711852,0.0
-0.13850231629637674,-0.032644901590931606,0.15707259262473494,0.0
-0.13844598990034937,-0.032601181578777026,0.15708573545047466,0.0
-0.1384679840168934,-0.03263336809079267,0.1570669599851322,0.0
-0.13849775654050786,-0.032491479216990374,0.1570573040315275,0.0
-0.13853262526185814,-0.032530103031409144,0.1570109018100383,0.0
-0.1385358439130597,-0.03250945001953244,0.1569186338089268,0.0
-0.13853557569212624,-0.03254700095021736,0.1569392868208035,0.0
-0.13850687605224563,-0.032525006833673334,0.1572319158592124,0.0
-0.13851492268024954,-0.03250059872872814,0.15697522842588763,0.0
-0.13851063114531412,-0.03258106500876725,0.15699480855403047,0.0
-0.13846449714475836,-0.03258777053210384,0.15709270919474472,0.0
-0.13846476536569183,-0.03257301838076334,0.15694116436733774,0.0
-0.13852833372692272,-0.032611373974248646,0.15678532800499534,0.0
-0.13857554061121233,-0.03274360689444624,0.1570699104154003,0.0
-0.13853638035492663,-0.03258267433436803,0.15702699506604612,0.0
-0.13852001887798535,-0.032528761926741825,0.156935531727735,0.0
-0.13852082354078574,-0.03256068021782401,0.15712972368356273,0.0
-0.13851331335464875,-0.032628003672123394,0.1570366510196508,0.0
-0.1384915874590382,-0.03265080245146781,0.15699883186803243,0.0
-0.13850982648251373,-0.032577846357565686,0.15699185812376237,0.0
-0.13852806550598926,-0.032654289323602835,0.15696905934441796,0.0
-0.13852082354078574,-0.03266421349814099,0.1569628902629483,0.0
-0.138485686598502,-0.03270578774282786,0.1569599398326802,0.0
-0.1385248468547877,-0.032720539894168364,0.15695296608841014,0.0
-0.13857607705307926,-0.03274307045257931,0.15694089614640427,0.0
-0.13857393128561155,-0.032593134950773116,0.15682368359848065,0.0
-0.13856642109947456,-0.03261325152078289,0.15697066867001874,0.0
-0.13857178551814384,-0.032619957044119484,0.15704818451978975,0.0
-0.13857688171587965,-0.03264168293973004,0.15702109420550991,0.0
-0.13855113250626713,-0.03258321077623496,0.15687598668050606,0.0
-0.13853235704092468,-0.03250354915899624,0.1568218060519464,0.0
-0.1385809050298816,-0.032527957263941434,0.1570913680900774,0.0
-0.13858841521601858,-0.032607618881180155,0.15707259262473494,0.0
-0.13856507999480724,-0.032652143556135126,0.15704094255458623,0.0
-0.1385771499368131,-0.032640341835062724,0.15714152540463514,0.0
-0.13853772145959395,-0.032451514297904285,0.1570744701712692,0.0
-0.1385232375291869,-0.032530907694209535,0.15698461615855885,0.0
-0.13855166894813406,-0.03250354915899624,0.15703718746151774,0.0
-0.138533698145592,-0.03250059872872814,0.15701197469377215,0.0
-0.13854791385506557,-0.032481286821518754,0.15699051701909505,0.0
-0.13852055531985227,-0.032509718240465904,0.1570092924844375,0.0
-0.13854120833172898,-0.0325732866016968,0.15701143825190522,0.0
-0.13857741815774657,-0.03251374155446786,0.15710451091581715,0.0
-0.138574199506545,-0.03249872118219389,0.15707044685726723,0.0
-0.13858278257641585,-0.03253493100821149,0.15705837691526137,0.0
-0.13859914405335713,-0.032473240193514843,0.15696771823975064,0.0
-0.13860987289069568,-0.032523665729006015,0.15691166006465673,0.0
-0.1386015580417583,-0.03261673839291792,0.1570463069732555,0.0
-0.13859082920441976,-0.03257730991569876,0.15723298874294625,0.0
-0.13856347066920646,-0.03256523997369289,0.1571898051726586,0.0
-0.13860370380922601,-0.032626662567456076,0.15719329204479363,0.0
-0.13860638601856065,-0.03262210281158719,0.15724613156868597,0.0
-0.13860397203015948,-0.03266555460280831,0.1569784470770892,0.0
-0.1386230157164354,-0.03275031241778283,0.1569864937050931,0.0
-0.13860182626269177,-0.03262532146278876,0.15709565962501282,0.0
-0.1385994122742906,-0.03267655166108032,0.15709083164821047,0.0
-0.13859512073935518,-0.03273475560364194,0.15702699506604612,0.0
-0.13859404785562132,-0.03265294821893552,0.15704282010112047,0.0
-0.13861577375123188,-0.0327535310689844,0.15711631263688955,0.0
-0.13862435682110272,-0.03270283731255976,0.15699480855403047,0.0
-0.13864500983297942,-0.032663140614407137,0.15694572412320662,0.0
-0.1386659310657896,-0.03266984613774373,0.15705033028725746,0.0
-0.13863240344910663,-0.03268084319601574,0.1570168026705745,0.0
-0.1386659310657896,-0.032698009335757415,0.15702136242644338,0.0
-0.1386916802754021,-0.03280851636034445,0.15685908876169785,0.0
-0.13867746456592853,-0.03278384003446579,0.15699936830989936,0.0
-0.1386600302052534,-0.0327859858019335,0.15709968293901477,0.0
-0.1386310623444393,-0.032666627486542164,0.15704174721738662,0.0
-0.13865439756565065,-0.03269854577762434,0.15706132734552947,0.0
-0.13869141205446864,-0.032766405673790654,0.157020557763643,0.0
-0.13869355782193635,-0.03267789276574764,0.15699963653083282,0.0
-0.13866995437979154,-0.03267494233547954,0.15696852290255103,0.0
-0.13868980272886786,-0.03274870309218205,0.1570109018100383,0.0
-0.1386938260428698,-0.032805029488209424,0.1569636949257487,0.0
-0.138651715356316,-0.03280932102314484,0.15720723953333374,0.0
-0.13864822848418099,-0.03279295954620356,0.15709673250874667,0.0
-0.13861604197216534,-0.032685671172818086,0.1570404061127193,0.0
-0.13861094577442953,-0.03273824247577697,0.157098073613414,0.0
-0.13867719634499506,-0.03277552518552842,0.15722923364987776,0.0
-0.1386983857987387,-0.03275755438298635,0.15727858630163508,0.0
-0.1387270854386193,-0.0327623823597887,0.15702699506604612,0.0
-0.13873137697355473,-0.03280395660447557,0.15686847649436908,0.0
-0.1386718319263258,-0.03274816665031512,0.1568121500983417,0.0
-0.1386967764731379,-0.032760773034187916,0.15695806228614595,0.0
-0.13867719634499506,-0.0327535310689844,0.15710799778795217,0.0
-0.13870079978713987,-0.032870207175041105,0.15702887261258036,0.0
-0.1387042866592749,-0.032894883500919764,0.15704147899645315,0.0
-0.13868712051953322,-0.03275218996431708,0.15691434227399137,0.0
-0.13869409426380327,-0.0328466037328963,0.1568609663082321,0.0
-0.13868685229859976,-0.03285894189583563,0.15715520467224178,0.0
-0.13872091635714964,-0.03285652790743446,0.15713401521849815,0.0
-0.13872252568275042,-0.03292733823386887,0.15701733911244142,0.0
-0.13870401843834143,-0.03284874950036401,0.15702619040324572,0.0
-0.13867934211246277,-0.03276694211565758,0.1570964642878132,0.0
-0.13866673572858998,-0.03284821305849708,0.15711282576475452,0.0
-0.13873137697355473,-0.032894347059052836,0.15703718746151774,0.0
-0.13870026334527294,-0.032694254242688923,0.15703048193818114,0.0
-0.13867665990312814,-0.03273100051057345,0.15707393372940226,0.0
-0.13876463636930422,-0.03280395660447557,0.15702619040324572,0.0
-0.13878823981144903,-0.032796446418338586,0.15705167139192477,0.0
-0.13875337109009875,-0.032836679558358145,0.15707017863633377,0.0
-0.13872225746181696,-0.032851163488765184,0.15706803286886606,0.0
-0.1387241350083512,-0.03288817797758317,0.15705569470592673,0.0
-0.1387249396711516,-0.03293538486187278,0.15702243531017723,0.0
-0.1387131379500792,-0.03283936176769278,0.15691541515772522,0.0
-0.1386680768332573,-0.032914731849996076,0.15691434227399137,0.0
-0.13866458996112227,-0.03301477825817803,0.15719624247506173,0.0
-0.13869194849633557,-0.032885763989182,0.15718712296332396,0.0
-0.13871742948501462,-0.03276372346445602,0.15708975876447662,0.0
-0.13869892224060562,-0.032825682500086134,0.1571468898233044,0.0
-0.13869919046153908,-0.03280637059287674,0.15709592784594628,0.0
-0.13869811757780523,-0.03284311686076127,0.15712945546262927,0.0
-0.13868712051953322,-0.032876108035577306,0.15704147899645315,0.0
-0.1386629806355215,-0.032877449140244625,0.157090563427277,0.0
-0.13866941793792462,-0.03294209038520937,0.15716807927704804,0.0
-0.1387632952646369,-0.03301692402564574,0.1570602544617956,0.0
-0.13876651391583847,-0.032921973815199596,0.15707688415967036,0.0
-0.1387101875198111,-0.03289246951251859,0.15710531557861754,0.0
-0.13868819340326707,-0.0328495541631644,0.1571085342298191,0.0
